# Region:            Si2p (13)
# Acquisition Date:  11/08/19 15:30:56 UTC
# Analysis Method:   XPS
# Analyzer:          Phoibos
# Analyzer Lens:     MediumArea:1.5kV
# Analyzer Slit:     4:3x20\B:open
# Scan Mode:         FixedAnalyzerTransmission
# Curves/Scan:       1
# Values/Curve:      171
# Dwell Time:        0.1
# Excitation Energy: 1486.71
# Binding Energy:    114
# Pass Energy:       10
# Bias Voltage:      90
# Detector Voltage:  1900
# Eff. Workfunction: 4.395
# Source:            Focus
# Comment:           
#
# Cycle: 0
# Number of Scans: 15
#
# Cycle: 0, Curve: 0
# Acquisition Date: 11/08/19 15:30:56 UTC
#
# ColumnLabels: energy counts/s
#
114  101.50164
113.9  89.422549
113.8  92.048647
113.7  81.938512
113.6  82.947257
113.5  78.409531
113.4  93.401839
113.3  93.556049
113.2  77.242323
113.1  93.883267
113  93.272297
112.9  88.009815
112.8  87.471588
112.7  91.911032
112.6  89.725227
112.5  87.742831
112.4  88.029436
112.3  91.987955
112.2  78.390061
112.1  80.998937
112  78.801175
111.9  74.938449
111.8  62.350271
111.7  73.804591
111.6  87.076721
111.5  78.099744
111.4  93.183016
111.3  80.587205
111.2  72.68272
111.1  64.259797
111  78.746372
110.9  91.404969
110.8  74.930001
110.7  67.630252
110.6  69.72084
110.5  69.054811
110.4  67.734292
110.3  71.908805
110.2  64.480019
110.1  75.290647
110  64.219293
109.9  65.643976
109.8  75.912094
109.7  67.453712
109.6  62.952016
109.5  68.962191
109.4  57.272847
109.3  63.388355
109.2  61.425902
109.1  58.102817
109  63.175576
108.9  55.364376
108.8  55.618681
108.7  60.643996
108.6  58.43038
108.5  61.848669
108.4  68.095693
108.3  57.622644
108.2  64.132779
108.1  73.522593
108  59.012508
107.9  64.933233
107.8  61.570152
107.7  72.996703
107.6  74.919536
107.5  75.018774
107.4  85.89109
107.3  92.772178
107.2  94.014061
107.1  103.05328
107  118.4556
106.9  134.84774
106.8  148.99974
106.7  183.52401
106.6  230.09023
106.5  271.4966
106.4  329.58161
106.3  373.86425
106.2  427.97362
106.1  510.10275
106  588.84397
105.9  722.28191
105.8  804.72933
105.7  879.58452
105.6  1046.3178
105.5  1127.3992
105.4  1204.3546
105.3  1329.8396
105.2  1405.3842
105.1  1459.3304
105  1552.0854
104.9  1550.1178
104.8  1551.9533
104.7  1569.9225
104.6  1563.4528
104.5  1491.8046
104.4  1439.2264
104.3  1340.3613
104.2  1146.0745
104.1  1110.7536
104  988.49316
103.9  893.32933
103.8  783.82818
103.7  701.4226
103.6  602.95413
103.5  519.08424
103.4  446.95279
103.3  369.83108
103.2  332.93259
103.1  301.04411
103  250.7467
102.9  196.15576
102.8  186.15045
102.7  152.76369
102.6  137.24077
102.5  129.03394
102.4  100.98103
102.3  112.83231
102.2  99.264581
102.1  89.108685
102  94.288681
101.9  95.562452
101.8  75.215641
101.7  80.025039
101.6  76.922253
101.5  76.564351
101.4  77.996854
101.3  76.180369
101.2  53.941328
101.1  58.261133
101  52.7846
100.9  61.082171
100.8  71.01479
100.7  56.883312
100.6  59.458104
100.5  75.38954
100.4  68.792034
100.3  80.629619
100.2  85.151986
100.1  113.52453
100  115.38669
99.9  103.98747
99.8  122.95214
99.7  115.40103
99.6  147.65333
99.5  166.36287
99.4  151.51972
99.3  126.6725
99.2  109.67968
99.1  72.993003
99  63.146664
98.9  50.469622
98.8  52.387083
98.7  56.248878
98.6  48.788021
98.5  54.257607
98.4  57.366394
98.3  55.543244
98.2  55.466771
98.1  56.190368
98  54.474207
97.9  56.352818
97.8  52.96319
97.7  48.241174
97.6  47.422189
97.5  51.099652
97.4  52.354042
97.3  52.026058
97.2  50.437724
97.1  49.508143
97  57.702426