# Region:            Si2p (10)
# Acquisition Date:  11/08/19 02:23:39 UTC
# Analysis Method:   XPS
# Analyzer:          Phoibos
# Analyzer Lens:     MediumArea:1.5kV
# Analyzer Slit:     4:3x20\B:open
# Scan Mode:         FixedAnalyzerTransmission
# Curves/Scan:       1
# Values/Curve:      171
# Dwell Time:        0.1
# Excitation Energy: 1486.71
# Binding Energy:    114
# Pass Energy:       10
# Bias Voltage:      90
# Detector Voltage:  1900
# Eff. Workfunction: 4.395
# Source:            Focus
# Comment:           medicion angular alta resolucion a 35 grados
#
# Cycle: 0
# Number of Scans: 15
#
# Cycle: 0, Curve: 0
# Acquisition Date: 11/08/19 02:23:39 UTC
#
# ColumnLabels: energy counts/s
#
114  84.557029
113.9  80.720639
113.8  78.04583
113.7  80.382787
113.6  68.957456
113.5  71.141888
113.4  77.400283
113.3  83.425223
113.2  70.395626
113.1  63.021007
113  73.357609
112.9  68.956236
112.8  61.463612
112.7  63.807634
112.6  67.460142
112.5  67.441704
112.4  73.158356
112.3  66.462855
112.2  67.235479
112.1  64.125576
112  68.975553
111.9  61.003702
111.8  70.870666
111.7  69.279362
111.6  50.380544
111.5  57.040337
111.4  62.670645
111.3  68.100813
111.2  59.992949
111.1  71.379796
111  66.985083
110.9  61.135239
110.8  55.440103
110.7  60.520319
110.6  50.993746
110.5  54.57495
110.4  50.074465
110.3  48.7299
110.2  49.277067
110.1  48.140346
110  47.589771
109.9  58.820056
109.8  57.537186
109.7  54.120267
109.6  65.226322
109.5  67.606027
109.4  60.195002
109.3  60.281573
109.2  49.628173
109.1  60.062073
109  53.675221
108.9  60.777815
108.8  48.289152
108.7  49.766764
108.6  61.238904
108.5  55.578966
108.4  47.89261
108.3  53.987477
108.2  50.441122
108.1  56.576772
108  53.056718
107.9  51.981977
107.8  61.495168
107.7  57.067103
107.6  62.025592
107.5  68.009473
107.4  67.089754
107.3  79.783621
107.2  86.358884
107.1  95.955004
107  103.29677
106.9  125.07318
106.8  138.74546
106.7  170.45499
106.6  195.72036
106.5  238.52826
106.4  268.11377
106.3  325.52334
106.2  394.64918
106.1  467.30254
106  538.70578
105.9  627.42573
105.8  673.84315
105.7  794.86085
105.6  869.35848
105.5  1016.6427
105.4  1086.8568
105.3  1104.747
105.2  1189.5111
105.1  1248.5199
105  1336.8679
104.9  1264.8624
104.8  1294.4883
104.7  1262.9904
104.6  1237.8283
104.5  1196.7777
104.4  1132.3471
104.3  1032.0034
104.2  985.23411
104.1  865.97882
104  753.67849
103.9  690.10578
103.8  603.23751
103.7  534.78249
103.6  460.66421
103.5  415.5013
103.4  359.55081
103.3  290.33502
103.2  261.01117
103.1  219.52533
103  196.27902
102.9  170.79347
102.8  157.94962
102.7  148.31594
102.6  129.20963
102.5  91.287435
102.4  96.711607
102.3  99.49893
102.2  93.427301
102.1  95.847137
102  71.592228
101.9  68.37182
101.8  65.449994
101.7  68.907555
101.6  63.840942
101.5  65.942777
101.4  50.947894
101.3  52.743439
101.2  57.786297
101.1  46.641831
101  44.388
100.9  46.067216
100.8  49.002603
100.7  53.353407
100.6  53.167551
100.5  53.427659
100.4  62.560523
100.3  59.871951
100.2  61.655455
100.1  67.98745
100  66.95101
99.9  67.480015
99.8  68.514578
99.7  72.855755
99.6  75.996948
99.5  81.035605
99.4  68.881869
99.3  65.638949
99.2  50.807675
99.1  58.603566
99  53.60765
98.9  48.502158
98.8  51.288343
98.7  43.405144
98.6  39.380591
98.5  38.073559
98.4  40.39802
98.3  47.595059
98.2  36.892999
98.1  42.142119
98  39.493535
97.9  41.639007
97.8  42.995973
97.7  39.658521
97.6  40.285905
97.5  39.200225
97.4  38.993727
97.3  46.17678
97.2  43.473817
97.1  45.547405
97  48.165324