# Region:            Si2p (7)
# Acquisition Date:  11/08/19 01:19:04 UTC
# Analysis Method:   XPS
# Analyzer:          Phoibos
# Analyzer Lens:     MediumArea:1.5kV
# Analyzer Slit:     4:3x20\B:open
# Scan Mode:         FixedAnalyzerTransmission
# Curves/Scan:       1
# Values/Curve:      171
# Dwell Time:        0.1
# Excitation Energy: 1486.71
# Binding Energy:    114
# Pass Energy:       10
# Bias Voltage:      90
# Detector Voltage:  1900
# Eff. Workfunction: 4.395
# Source:            Focus
# Comment:           meddicion angular alta resolucion 5 grados
#
# Cycle: 0
# Number of Scans: 15
#
# Cycle: 0, Curve: 0
# Acquisition Date: 11/08/19 01:19:04 UTC
#
# ColumnLabels: energy counts/s
#
114  103.24317
113.9  88.528591
113.8  90.565324
113.7  99.775104
113.6  92.57033
113.5  100.78052
113.4  95.560858
113.3  92.607221
113.2  84.447244
113.1  102.47312
113  101.94273
112.9  85.080047
112.8  93.836181
112.7  97.646132
112.6  86.763092
112.5  82.760639
112.4  75.890223
112.3  78.995064
112.2  78.617442
112.1  82.225851
112  97.984435
111.9  93.793356
111.8  91.842384
111.7  79.190859
111.6  82.446985
111.5  81.494297
111.4  86.940495
111.3  89.146527
111.2  73.057765
111.1  70.398247
111  76.371839
110.9  73.589309
110.8  76.241676
110.7  83.548463
110.6  73.683516
110.5  78.392204
110.4  75.288457
110.3  67.370433
110.2  78.153535
110.1  72.046512
110  71.777877
109.9  71.919839
109.8  68.991302
109.7  80.256726
109.6  68.95244
109.5  75.337046
109.4  66.192073
109.3  77.247166
109.2  69.324379
109.1  84.525482
109  77.006476
108.9  61.191294
108.8  59.550252
108.7  68.1717
108.6  60.591512
108.5  77.988487
108.4  77.366789
108.3  76.519189
108.2  67.515357
108.1  51.551532
108  69.475109
107.9  65.958176
107.8  62.499378
107.7  69.162252
107.6  89.583557
107.5  91.025053
107.4  85.266968
107.3  96.13618
107.2  93.175497
107.1  109.90373
107  127.51164
106.9  161.96095
106.8  186.14382
106.7  203.55234
106.6  254.51469
106.5  298.15178
106.4  362.22735
106.3  439.07226
106.2  493.33485
106.1  585.9775
106  723.64877
105.9  803.90359
105.8  922.15094
105.7  1033.5922
105.6  1129.0841
105.5  1274.1437
105.4  1364.99
105.3  1532
105.2  1566.9177
105.1  1643.3113
105  1684.9694
104.9  1786.7937
104.8  1792.5801
104.7  1710.2308
104.6  1697.5003
104.5  1632.7578
104.4  1589.5274
104.3  1474.8227
104.2  1364.247
104.1  1214.283
104  1134.7539
103.9  1018.2776
103.8  857.15619
103.7  790.27847
103.6  665.32685
103.5  565.4053
103.4  477.95961
103.3  422.49318
103.2  370.80061
103.1  313.24417
103  245.34031
102.9  230.04731
102.8  203.12414
102.7  181.79778
102.6  157.92092
102.5  148.27034
102.4  130.19249
102.3  119.64337
102.2  101.41236
102.1  99.361742
102  95.997635
101.9  93.774269
101.8  88.310384
101.7  69.220251
101.6  74.819183
101.5  79.404767
101.4  82.939331
101.3  75.322625
101.2  76.826573
101.1  75.826657
101  67.404649
100.9  71.293596
100.8  55.93856
100.7  61.790717
100.6  65.91792
100.5  79.280954
100.4  88.288429
100.3  107.48388
100.2  109.68703
100.1  116.27402
100  110.89939
99.9  116.3509
99.8  115.4411
99.7  131.58017
99.6  136.42394
99.5  161.75148
99.4  161.74092
99.3  141.6788
99.2  101.80127
99.1  69.961752
99  58.391096
98.9  61.443507
98.8  53.999082
98.7  52.913433
98.6  60.930039
98.5  57.619444
98.4  45.704362
98.3  39.694175
98.2  57.115448
98.1  59.086115
98  57.798763
97.9  60.213923
97.8  54.028957
97.7  53.084546
97.6  53.473932
97.5  54.994859
97.4  62.433981
97.3  62.4646
97.2  53.725912
97.1  57.06317
97  53.718983