# Region:            Si2p (3)
# Acquisition Date:  11/07/19 21:42:06 UTC
# Analysis Method:   XPS
# Analyzer:          Phoibos
# Analyzer Lens:     MediumArea:1.5kV
# Analyzer Slit:     4:3x20\B:open
# Scan Mode:         FixedAnalyzerTransmission
# Curves/Scan:       1
# Values/Curve:      171
# Dwell Time:        0.1
# Excitation Energy: 1486.71
# Binding Energy:    114
# Pass Energy:       10
# Bias Voltage:      90
# Detector Voltage:  1900
# Eff. Workfunction: 4.395
# Source:            Focus
# Comment:           
#
# Cycle: 0
# Number of Scans: 15
#
# Cycle: 0, Curve: 0
# Acquisition Date: 11/07/19 21:42:06 UTC
#
# ColumnLabels: energy counts/s
#
114  91.128743
113.9  101.7309
113.8  88.92514
113.7  86.246731
113.6  97.088466
113.5  107.63009
113.4  87.617819
113.3  86.038607
113.2  87.384157
113.1  90.925813
113  93.028148
112.9  81.941982
112.8  87.77123
112.7  91.591378
112.6  81.908007
112.5  89.512187
112.4  85.506287
112.3  76.115497
112.2  74.13183
112.1  84.798985
112  83.576791
111.9  81.768447
111.8  85.623441
111.7  86.135922
111.6  69.485157
111.5  74.769488
111.4  84.008334
111.3  83.406636
111.2  83.440051
111.1  83.2544
111  70.465207
110.9  75.21154
110.8  80.873642
110.7  80.22766
110.6  77.721435
110.5  73.823083
110.4  74.976909
110.3  76.69096
110.2  65.120394
110.1  70.604265
110  69.822714
109.9  70.176654
109.8  68.594591
109.7  59.317693
109.6  73.202619
109.5  71.941858
109.4  81.752523
109.3  79.861353
109.2  68.735406
109.1  66.127482
109  70.91376
108.9  68.089872
108.8  67.394375
108.7  65.828926
108.6  66.012805
108.5  58.344639
108.4  66.558319
108.3  73.422312
108.2  73.581102
108.1  59.608471
108  72.053006
107.9  76.628353
107.8  96.453692
107.7  79.797261
107.6  88.933142
107.5  110.4502
107.4  114.86581
107.3  114.08448
107.2  136.38956
107.1  152.29669
107  188.53915
106.9  222.89457
106.8  252.79739
106.7  301.8377
106.6  340.50735
106.5  403.92672
106.4  495.588
106.3  579.45762
106.2  658.17021
106.1  765.49952
106  860.19182
105.9  983.80783
105.8  1094.3186
105.7  1225.1931
105.6  1360.1664
105.5  1458.0797
105.4  1514.5729
105.3  1617.163
105.2  1707.9619
105.1  1741.7934
105  1793.9599
104.9  1769.5462
104.8  1751.1228
104.7  1696.015
104.6  1624.5774
104.5  1551.5346
104.4  1389.5953
104.3  1330.9206
104.2  1199.1315
104.1  1067.1017
104  963.23166
103.9  859.98513
103.8  735.33156
103.7  630.74325
103.6  573.10061
103.5  482.04431
103.4  409.0632
103.3  367.65761
103.2  311.65242
103.1  273.31385
103  244.66049
102.9  206.16458
102.8  171.9701
102.7  162.49972
102.6  154.87006
102.5  148.40091
102.4  118.3133
102.3  110.82236
102.2  96.216741
102.1  96.39387
102  102.39429
101.9  93.452371
101.8  84.687251
101.7  81.687496
101.6  75.64731
101.5  71.932245
101.4  71.548727
101.3  74.265775
101.2  74.656346
101.1  76.516235
101  61.323895
100.9  67.0645
100.8  61.975457
100.7  62.546129
100.6  70.928714
100.5  70.619127
100.4  70.016854
100.3  76.986607
100.2  86.678748
100.1  95.8314
100  80.233964
99.9  85.764807
99.8  103.3401
99.7  116.98895
99.6  114.69184
99.5  97.041825
99.4  93.495186
99.3  67.256195
99.2  58.666175
99.1  48.625188
99  59.951012
98.9  55.752442
98.8  53.48004
98.7  51.986137
98.6  47.171695
98.5  56.793991
98.4  54.210524
98.3  47.94028
98.2  49.965077
98.1  48.456783
98  52.634085
97.9  56.271952
97.8  53.257389
97.7  54.196517
97.6  52.386177
97.5  54.384958
97.4  47.35709
97.3  48.206796
97.2  43.548368
97.1  58.829547
97  53.281276