# Region:            Si2p
# Acquisition Date:  11/07/19 18:50:42 UTC
# Analysis Method:   XPS
# Analyzer:          Phoibos
# Analyzer Lens:     MediumArea:1.5kV
# Analyzer Slit:     4:3x20\B:open
# Scan Mode:         FixedAnalyzerTransmission
# Curves/Scan:       1
# Values/Curve:      171
# Dwell Time:        0.1
# Excitation Energy: 1486.71
# Binding Energy:    114
# Pass Energy:       10
# Bias Voltage:      90
# Detector Voltage:  1900
# Eff. Workfunction: 4.395
# Source:            Focus
# Comment:           
#
# Cycle: 0
# Number of Scans: 15
#
# Cycle: 0, Curve: 0
# Acquisition Date: 11/07/19 18:50:42 UTC
#
# ColumnLabels: energy counts/s
#
114  101.63374
113.9  101.36469
113.8  96.145143
113.7  105.74376
113.6  89.662721
113.5  94.886089
113.4  82.181744
113.3  76.782561
113.2  93.245752
113.1  95.106886
113  95.180999
112.9  85.966959
112.8  94.838422
112.7  96.717781
112.6  93.413119
112.5  75.818141
112.4  89.626389
112.3  96.762859
112.2  87.362208
112.1  79.050801
112  88.43463
111.9  86.203326
111.8  99.531688
111.7  90.335983
111.6  85.848883
111.5  80.497705
111.4  81.685581
111.3  88.489815
111.2  86.497713
111.1  76.027533
111  69.69088
110.9  75.603284
110.8  81.739926
110.7  78.492209
110.6  65.013444
110.5  71.734816
110.4  67.131106
110.3  87.475691
110.2  72.404816
110.1  73.109303
110  80.160322
109.9  73.763628
109.8  72.878187
109.7  64.782163
109.6  68.139078
109.5  65.502302
109.4  78.754419
109.3  76.480437
109.2  70.871322
109.1  60.198154
109  74.948385
108.9  71.872542
108.8  68.838271
108.7  70.56104
108.6  75.074447
108.5  81.937066
108.4  74.892776
108.3  79.401319
108.2  84.141839
108.1  83.02134
108  78.522825
107.9  86.821449
107.8  85.831061
107.7  108.26231
107.6  113.2204
107.5  133.00624
107.4  144.33101
107.3  169.47027
107.2  179.80916
107.1  202.68534
107  244.01855
106.9  301.97023
106.8  337.37019
106.7  374.52137
106.6  469.27218
106.5  526.77332
106.4  612.89864
106.3  712.2751
106.2  842.27944
106.1  965.78074
106  1044.9677
105.9  1149.5181
105.8  1267.9706
105.7  1378.3835
105.6  1516.5665
105.5  1552.5081
105.4  1603.0958
105.3  1641.8742
105.2  1699.0342
105.1  1680.6486
105  1663.6634
104.9  1676.5078
104.8  1599.0993
104.7  1517.0358
104.6  1422.676
104.5  1338.772
104.4  1231.5142
104.3  1123.6417
104.2  975.35116
104.1  882.37637
104  799.47871
103.9  725.60703
103.8  594.53377
103.7  554.756
103.6  480.30075
103.5  427.3048
103.4  368.90534
103.3  325.30534
103.2  289.35472
103.1  242.41011
103  230.21043
102.9  208.74019
102.8  187.15945
102.7  156.03858
102.6  149.43163
102.5  147.57741
102.4  124.34682
102.3  116.07656
102.2  112.58925
102.1  103.96302
102  110.96805
101.9  110.8529
101.8  86.331658
101.7  86.222788
101.6  77.763505
101.5  72.539495
101.4  75.363704
101.3  67.586783
101.2  61.792957
101.1  66.532566
101  71.215874
100.9  69.784901
100.8  78.236473
100.7  77.889492
100.6  75.471173
100.5  74.594488
100.4  77.826897
100.3  76.147545
100.2  83.194186
100.1  82.352707
100  76.299108
99.9  92.281934
99.8  77.431745
99.7  76.219658
99.6  75.350439
99.5  65.030431
99.4  73.246079
99.3  69.772354
99.2  55.990209
99.1  60.325787
99  58.689272
98.9  61.992781
98.8  49.091067
98.7  60.194716
98.6  62.75438
98.5  59.642859
98.4  50.495765
98.3  54.753686
98.2  58.248509
98.1  63.609781
98  57.840654
97.9  41.109212
97.8  48.941511
97.7  56.59953
97.6  72.965766
97.5  60.851315
97.4  54.449437
97.3  58.908836
97.2  73.936463
97.1  65.85523
97  63.496663