# Region:            Si2p (19)
# Acquisition Date:  11/08/19 17:18:44 UTC
# Analysis Method:   XPS
# Analyzer:          Phoibos
# Analyzer Lens:     MediumArea:1.5kV
# Analyzer Slit:     4:3x20\B:open
# Scan Mode:         FixedAnalyzerTransmission
# Curves/Scan:       1
# Values/Curve:      171
# Dwell Time:        0.1
# Excitation Energy: 1486.71
# Binding Energy:    114
# Pass Energy:       10
# Bias Voltage:      90
# Detector Voltage:  1900
# Eff. Workfunction: 4.395
# Source:            Focus
# Comment:           55 grados
#
# Cycle: 0
# Number of Scans: 15
#
# Cycle: 0, Curve: 0
# Acquisition Date: 11/08/19 17:18:44 UTC
#
# ColumnLabels: energy counts/s
#
114  63.387195
113.9  53.076106
113.8  59.539305
113.7  61.146122
113.6  54.081236
113.5  51.550328
113.4  52.869838
113.3  54.290576
113.2  43.016407
113.1  46.321862
113  52.867993
112.9  55.972426
112.8  50.156677
112.7  52.574024
112.6  50.411671
112.5  55.887133
112.4  47.932508
112.3  58.97238
112.2  47.423807
112.1  48.41022
112  47.778035
111.9  52.51093
111.8  50.716577
111.7  49.435907
111.6  57.503216
111.5  48.247684
111.4  40.961734
111.3  49.425292
111.2  53.952619
111.1  52.233417
111  48.983792
110.9  48.495832
110.8  55.658234
110.7  51.400048
110.6  49.32049
110.5  50.423834
110.4  40.455514
110.3  48.448845
110.2  49.187835
110.1  51.313171
110  47.827116
109.9  50.093128
109.8  53.62476
109.7  42.538884
109.6  40.933459
109.5  38.34809
109.4  37.156887
109.3  52.209224
109.2  44.738608
109.1  37.461703
109  40.635394
108.9  32.01528
108.8  38.495684
108.7  39.465938
108.6  36.116224
108.5  40.834297
108.4  45.980159
108.3  43.573015
108.2  47.447381
108.1  39.133309
108  39.773231
107.9  41.119514
107.8  36.298925
107.7  40.159965
107.6  47.495817
107.5  54.66417
107.4  57.033554
107.3  64.631725
107.2  61.573965
107.1  70.912148
107  74.567438
106.9  84.821417
106.8  96.970041
106.7  112.46493
106.6  135.57668
106.5  168.06766
106.4  223.47294
106.3  227.68804
106.2  260.73104
106.1  310.29331
106  371.80457
105.9  425.62634
105.8  520.59033
105.7  554.88844
105.6  596.55271
105.5  622.82275
105.4  722.52027
105.3  765.64382
105.2  829.90721
105.1  872.99008
105  891.43278
104.9  878.44591
104.8  900.65278
104.7  858.99671
104.6  886.24803
104.5  841.42215
104.4  749.91582
104.3  701.7142
104.2  658.10337
104.1  640.79803
104  551.21745
103.9  495.13813
103.8  457.49638
103.7  377.42354
103.6  324.57093
103.5  302.44347
103.4  266.1192
103.3  224.11466
103.2  181.75932
103.1  164.56099
103  149.80435
102.9  130.93072
102.8  115.80074
102.7  117.28382
102.6  94.483922
102.5  78.855027
102.4  69.861515
102.3  78.917728
102.2  73.778072
102.1  64.267602
102  65.071157
101.9  55.366466
101.8  52.218733
101.7  42.696096
101.6  43.198714
101.5  51.364555
101.4  48.535672
101.3  41.0735
101.2  38.211852
101.1  48.681613
101  43.183923
100.9  37.097195
100.8  42.179794
100.7  42.152562
100.6  40.427999
100.5  41.627699
100.4  41.422757
100.3  40.885249
100.2  34.847462
100.1  45.952901
100  43.250965
99.9  43.568395
99.8  42.526823
99.7  36.02883
99.6  39.788623
99.5  40.66983
99.4  47.086221
99.3  40.88814
99.2  35.018936
99.1  30.092623
99  35.422171
98.9  29.071419
98.8  31.888726
98.7  39.87049
98.6  35.76002
98.5  38.307632
98.4  29.340436
98.3  27.356908
98.2  34.051306
98.1  31.995903
98  33.599156
97.9  33.96787
97.8  43.301761
97.7  41.811485
97.6  32.378647
97.5  26.194711
97.4  27.728213
97.3  28.660065
97.2  37.056333
97.1  34.926272
97  39.817529