# Region:            Si2p (9)
# Acquisition Date:  11/08/19 02:06:00 UTC
# Analysis Method:   XPS
# Analyzer:          Phoibos
# Analyzer Lens:     MediumArea:1.5kV
# Analyzer Slit:     4:3x20\B:open
# Scan Mode:         FixedAnalyzerTransmission
# Curves/Scan:       1
# Values/Curve:      171
# Dwell Time:        0.1
# Excitation Energy: 1486.71
# Binding Energy:    114
# Pass Energy:       10
# Bias Voltage:      90
# Detector Voltage:  1900
# Eff. Workfunction: 4.395
# Source:            Focus
# Comment:           medicion angular alta resolucion a 25 grados
#
# Cycle: 0
# Number of Scans: 15
#
# Cycle: 0, Curve: 0
# Acquisition Date: 11/08/19 02:06:00 UTC
#
# ColumnLabels: energy counts/s
#
114  83.678916
113.9  89.211972
113.8  78.111652
113.7  82.672774
113.6  89.070935
113.5  84.581445
113.4  80.319906
113.3  82.942338
113.2  87.646411
113.1  72.204208
113  74.828709
112.9  84.341479
112.8  76.835155
112.7  87.329044
112.6  76.930833
112.5  77.463153
112.4  63.268846
112.3  71.795106
112.2  73.190145
112.1  76.625783
112  74.611073
111.9  78.849519
111.8  66.24773
111.7  78.101018
111.6  81.193654
111.5  63.481991
111.4  70.274482
111.3  81.645145
111.2  68.1809
111.1  65.91924
111  69.1282
110.9  63.92307
110.8  54.94588
110.7  72.887933
110.6  56.229397
110.5  58.928941
110.4  58.310996
110.3  58.771779
110.2  67.632043
110.1  62.977084
110  70.726654
109.9  63.65396
109.8  67.435209
109.7  57.23065
109.6  66.455479
109.5  56.257116
109.4  68.070933
109.3  68.79586
109.2  62.183119
109.1  62.766113
109  60.900406
108.9  64.942016
108.8  48.656576
108.7  55.876882
108.6  60.355104
108.5  60.367217
108.4  50.521139
108.3  54.990057
108.2  60.103727
108.1  48.164038
108  57.496218
107.9  64.284585
107.8  63.244981
107.7  60.768325
107.6  59.87211
107.5  60.796858
107.4  71.394307
107.3  77.01
107.2  91.759582
107.1  100.61061
107  111.86716
106.9  127.88798
106.8  158.74791
106.7  175.25151
106.6  223.62839
106.5  258.78803
106.4  298.59316
106.3  333.06201
106.2  422.83278
106.1  508.53856
106  600.63549
105.9  642.4477
105.8  760.67906
105.7  883.0126
105.6  970.11303
105.5  1062.9397
105.4  1139.2181
105.3  1259.5796
105.2  1314.2992
105.1  1430.8568
105  1447.3148
104.9  1497.4369
104.8  1446.8609
104.7  1421.6267
104.6  1397.8109
104.5  1378.5772
104.4  1240.0102
104.3  1159.6601
104.2  1118.7858
104.1  997.37736
104  906.14621
103.9  863.00333
103.8  693.76728
103.7  633.37691
103.6  563.1835
103.5  488.53084
103.4  398.97029
103.3  335.33425
103.2  308.72485
103.1  252.0199
103  212.9453
102.9  200.26845
102.8  170.29971
102.7  136.85392
102.6  130.90013
102.5  103.43832
102.4  116.58853
102.3  98.728353
102.2  93.990408
102.1  86.480896
102  85.935593
101.9  79.476969
101.8  75.579409
101.7  74.426052
101.6  75.321516
101.5  60.933699
101.4  58.362528
101.3  61.576239
101.2  60.854479
101.1  55.441429
101  54.298541
100.9  63.498125
100.8  51.180487
100.7  50.75756
100.6  59.076695
100.5  69.313199
100.4  72.690903
100.3  77.041123
100.2  73.66887
100.1  84.747263
100  93.801773
99.9  88.70832
99.8  87.106012
99.7  95.329992
99.6  95.219908
99.5  95.26139
99.4  93.81834
99.3  74.372252
99.2  60.083541
99.1  59.203241
99  53.242315
98.9  55.446395
98.8  52.43478
98.7  54.905514
98.6  45.537849
98.5  49.63452
98.4  45.614228
98.3  46.216182
98.2  49.130272
98.1  43.730824
98  52.918513
97.9  51.326367
97.8  40.091564
97.7  46.715427
97.6  52.010917
97.5  45.496802
97.4  46.650491
97.3  50.724264
97.2  42.321147
97.1  42.473459
97  48.066409