# Region:            Si2p (24)
# Acquisition Date:  11/08/19 19:36:30 UTC
# Analysis Method:   XPS
# Analyzer:          Phoibos
# Analyzer Lens:     MediumArea:1.5kV
# Analyzer Slit:     4:3x20\B:open
# Scan Mode:         FixedAnalyzerTransmission
# Curves/Scan:       1
# Values/Curve:      171
# Dwell Time:        0.1
# Excitation Energy: 1486.71
# Binding Energy:    114
# Pass Energy:       10
# Bias Voltage:      90
# Detector Voltage:  1900
# Eff. Workfunction: 4.395
# Source:            Focus
# Comment:           25 grados
#
# Cycle: 0
# Number of Scans: 15
#
# Cycle: 0, Curve: 0
# Acquisition Date: 11/08/19 19:36:30 UTC
#
# ColumnLabels: energy counts/s
#
114  80.790916
113.9  97.447158
113.8  84.678517
113.7  81.504216
113.6  80.062697
113.5  82.685269
113.4  96.386923
113.3  86.595772
113.2  76.587612
113.1  79.239918
113  85.074129
112.9  82.342513
112.8  81.974543
112.7  87.072616
112.6  83.074273
112.5  67.947008
112.4  81.195662
112.3  85.663162
112.2  80.729275
112.1  67.048635
112  73.331359
111.9  80.328187
111.8  69.096896
111.7  76.956998
111.6  74.310417
111.5  79.352045
111.4  66.852243
111.3  63.843321
111.2  81.308337
111.1  74.135715
111  65.360859
110.9  78.673408
110.8  68.838833
110.7  60.438262
110.6  67.168026
110.5  59.273181
110.4  54.902702
110.3  64.714828
110.2  63.773128
110.1  68.038748
110  66.007097
109.9  63.051461
109.8  65.140068
109.7  59.091063
109.6  60.631359
109.5  63.487243
109.4  56.166891
109.3  58.295002
109.2  54.634056
109.1  70.67895
109  67.156903
108.9  61.848162
108.8  58.463427
108.7  56.702675
108.6  59.571317
108.5  53.863638
108.4  52.668528
108.3  56.748667
108.2  59.330769
108.1  53.888369
108  62.115898
107.9  55.32321
107.8  53.358304
107.7  65.549108
107.6  60.465244
107.5  57.00927
107.4  72.232331
107.3  80.591031
107.2  75.91611
107.1  81.773092
107  98.081395
106.9  124.25098
106.8  128.65829
106.7  151.03382
106.6  175.77246
106.5  197.97336
106.4  265.73564
106.3  320.62979
106.2  375.45402
106.1  439.63273
106  516.22051
105.9  623.11681
105.8  678.15946
105.7  747.85575
105.6  882.24805
105.5  1015.3857
105.4  1042.9172
105.3  1148.9044
105.2  1257.1442
105.1  1348.438
105  1362.6766
104.9  1433.8497
104.8  1416.1192
104.7  1420.2028
104.6  1372.2836
104.5  1296.0308
104.4  1270.8866
104.3  1161.1717
104.2  1045.5411
104.1  987.76567
104  940.59036
103.9  795.09777
103.8  716.94851
103.7  654.46562
103.6  533.21561
103.5  462.28843
103.4  394.28191
103.3  340.13929
103.2  315.08033
103.1  281.79383
103  223.29254
102.9  201.6608
102.8  154.54135
102.7  147.11457
102.6  139.55077
102.5  129.36368
102.4  118.91846
102.3  99.652299
102.2  89.822581
102.1  75.241907
102  80.493285
101.9  72.002913
101.8  75.736635
101.7  67.77523
101.6  68.574545
101.5  70.187372
101.4  66.181023
101.3  53.476075
101.2  56.456389
101.1  57.279408
101  50.600869
100.9  58.828098
100.8  61.933018
100.7  74.615781
100.6  65.049453
100.5  60.90656
100.4  67.717797
100.3  81.010632
100.2  99.299714
100.1  107.78131
100  113.99935
99.9  97.889005
99.8  116.1941
99.7  121.64696
99.6  118.01026
99.5  146.87465
99.4  144.21247
99.3  127.73747
99.2  110.23627
99.1  83.794621
99  59.018895
98.9  54.571331
98.8  56.852004
98.7  56.595863
98.6  57.23774
98.5  49.23551
98.4  38.808711
98.3  44.685459
98.2  43.810766
98.1  46.444608
98  41.454418
97.9  33.93851
97.8  43.717213
97.7  52.267829
97.6  48.187051
97.5  44.31122
97.4  46.99501
97.3  47.46894
97.2  43.281474
97.1  38.257188
97  42.577118