# Region:            Si2p (31)
# Acquisition Date:  11/08/19 21:59:29 UTC
# Analysis Method:   XPS
# Analyzer:          Phoibos
# Analyzer Lens:     MediumArea:1.5kV
# Analyzer Slit:     4:3x20\B:open
# Scan Mode:         FixedAnalyzerTransmission
# Curves/Scan:       1
# Values/Curve:      171
# Dwell Time:        0.1
# Excitation Energy: 1486.71
# Binding Energy:    114
# Pass Energy:       10
# Bias Voltage:      90
# Detector Voltage:  1900
# Eff. Workfunction: 4.395
# Source:            Focus
# Comment:           25 grados
#
# Cycle: 0
# Number of Scans: 15
#
# Cycle: 0, Curve: 0
# Acquisition Date: 11/08/19 21:59:29 UTC
#
# ColumnLabels: energy counts/s
#
114  109.58711
113.9  117.37088
113.8  96.845571
113.7  97.873319
113.6  92.339935
113.5  111.35535
113.4  104.14728
113.3  92.07015
113.2  90.203801
113.1  105.1567
113  105.21992
112.9  99.401912
112.8  97.400953
112.7  93.277261
112.6  102.84268
112.5  95.916789
112.4  90.547657
112.3  101.47832
112.2  88.717227
112.1  94.433417
112  99.363564
111.9  106.09419
111.8  97.69584
111.7  87.309823
111.6  78.211059
111.5  93.986514
111.4  98.894457
111.3  93.434616
111.2  90.841756
111.1  92.671601
111  89.583847
110.9  80.477969
110.8  83.460868
110.7  91.914445
110.6  81.674635
110.5  75.528487
110.4  77.389259
110.3  77.467568
110.2  76.837557
110.1  90.362145
110  76.044467
109.9  78.621179
109.8  68.459419
109.7  65.19467
109.6  72.12617
109.5  68.438882
109.4  58.432201
109.3  68.955901
109.2  64.657126
109.1  64.711946
109  60.404294
108.9  70.592997
108.8  82.978296
108.7  81.878454
108.6  70.216826
108.5  65.740164
108.4  66.652357
108.3  79.63772
108.2  69.008288
108.1  62.773947
108  75.33073
107.9  57.372667
107.8  66.860608
107.7  60.842322
107.6  59.806248
107.5  74.257047
107.4  65.332001
107.3  77.20443
107.2  72.109084
107.1  73.931142
107  78.451102
106.9  86.821896
106.8  76.255084
106.7  78.294052
106.6  84.783799
106.5  104.95909
106.4  124.26454
106.3  125.78765
106.2  130.80994
106.1  152.79981
106  201.59827
105.9  232.5961
105.8  286.70296
105.7  351.07198
105.6  412.5104
105.5  462.35387
105.4  554.64305
105.3  656.8412
105.2  727.81447
105.1  811.42138
105  930.38563
104.9  968.39097
104.8  1043.4169
104.7  1142.0262
104.6  1223.2509
104.5  1294.8533
104.4  1288.8796
104.3  1267.5768
104.2  1283.2378
104.1  1270.4568
104  1239.891
103.9  1161.113
103.8  1067.5168
103.7  971.60867
103.6  929.02727
103.5  818.59174
103.4  742.99878
103.3  657.85676
103.2  637.29716
103.1  547.37718
103  500.33868
102.9  420.65567
102.8  382.70883
102.7  319.40236
102.6  297.30697
102.5  251.71958
102.4  210.62998
102.3  181.45924
102.2  192.51649
102.1  174.42235
102  159.14456
101.9  161.5256
101.8  148.61544
101.7  123.9922
101.6  118.92634
101.5  118.8166
101.4  101.47608
101.3  97.187056
101.2  101.38142
101.1  93.109204
101  96.945583
100.9  109.59832
100.8  102.9091
100.7  99.650518
100.6  100.05316
100.5  106.87493
100.4  120.65415
100.3  155.05341
100.2  177.40734
100.1  182.05
100  209.50361
99.9  223.99353
99.8  215.68239
99.7  225.35675
99.6  230.36735
99.5  250.61477
99.4  268.24631
99.3  253.6024
99.2  218.11891
99.1  186.66853
99  143.08843
98.9  109.97566
98.8  77.091091
98.7  60.002779
98.6  54.716689
98.5  56.728461
98.4  42.877604
98.3  43.576818
98.2  45.451556
98.1  40.584578
98  36.132085
97.9  44.410585
97.8  38.978333
97.7  36.013942
97.6  43.184931
97.5  45.460224
97.4  52.284987
97.3  44.22574
97.2  42.914095
97.1  39.744867
97  37.217258