# Region:            Si2p (42)
# Acquisition Date:  11/09/19 01:57:17 UTC
# Analysis Method:   XPS
# Analyzer:          Phoibos
# Analyzer Lens:     MediumArea:1.5kV
# Analyzer Slit:     4:3x20\B:open
# Scan Mode:         FixedAnalyzerTransmission
# Curves/Scan:       1
# Values/Curve:      171
# Dwell Time:        0.1
# Excitation Energy: 1486.71
# Binding Energy:    114
# Pass Energy:       10
# Bias Voltage:      90
# Detector Voltage:  1900
# Eff. Workfunction: 4.395
# Source:            Focus
# Comment:           
#
# Cycle: 0
# Number of Scans: 15
#
# Cycle: 0, Curve: 0
# Acquisition Date: 11/09/19 01:57:17 UTC
#
# ColumnLabels: energy counts/s
#
114  256.38379
113.9  250.65794
113.8  246.41384
113.7  229.59069
113.6  251.14377
113.5  241.43614
113.4  240.56788
113.3  223.6153
113.2  240.43421
113.1  261.12466
113  229.76709
112.9  236.2602
112.8  241.97014
112.7  217.45247
112.6  225.79763
112.5  213.13223
112.4  216.04698
112.3  220.61152
112.2  214.703
112.1  206.58003
112  204.59738
111.9  204.99033
111.8  201.29678
111.7  217.52835
111.6  210.02456
111.5  189.69375
111.4  188.87075
111.3  195.06914
111.2  186.91161
111.1  179.77444
111  180.95626
110.9  181.44796
110.8  189.57029
110.7  199.63179
110.6  167.65528
110.5  173.69079
110.4  202.58596
110.3  200.16927
110.2  200.27928
110.1  172.35544
110  185.41102
109.9  182.09146
109.8  187.18199
109.7  179.1835
109.6  179.49775
109.5  180.94611
109.4  183.97948
109.3  176.45551
109.2  175.38498
109.1  174.86642
109  176.93875
108.9  149.28229
108.8  175.47656
108.7  182.88789
108.6  169.91907
108.5  147.74944
108.4  168.50659
108.3  171.44811
108.2  171.10857
108.1  168.21933
108  164.45245
107.9  148.87236
107.8  158.13643
107.7  166.62408
107.6  171.00833
107.5  176.38038
107.4  155.95724
107.3  152.79671
107.2  155.92476
107.1  156.97452
107  152.3407
106.9  151.09824
106.8  159.18597
106.7  160.09032
106.6  165.10624
106.5  160.45758
106.4  156.67382
106.3  153.75931
106.2  144.93889
106.1  153.01498
106  161.99899
105.9  164.93017
105.8  144.49936
105.7  164.87492
105.6  148.04646
105.5  167.07039
105.4  169.68499
105.3  170.02993
105.2  183.39235
105.1  198.09548
105  206.31453
104.9  214.05868
104.8  218.27654
104.7  242.66787
104.6  279.40882
104.5  276.53756
104.4  294.07458
104.3  334.2235
104.2  373.80121
104.1  370.53241
104  417.59923
103.9  443.41374
103.8  483.97332
103.7  521.0657
103.6  531.74448
103.5  559.57673
103.4  572.17964
103.3  601.50558
103.2  635.57559
103.1  627.83351
103  607.29013
102.9  600.41678
102.8  634.03509
102.7  658.97114
102.6  656.41794
102.5  646.76617
102.4  655.29064
102.3  623.53206
102.2  628.3579
102.1  618.71637
102  601.28817
101.9  608.40458
101.8  589.97886
101.7  585.59918
101.6  571.90089
101.5  570.25792
101.4  564.43482
101.3  530.07252
101.2  546.08066
101.1  548.78729
101  546.64194
100.9  560.83991
100.8  551.22595
100.7  551.27267
100.6  582.58787
100.5  668.85051
100.4  654.2499
100.3  766.07075
100.2  904.2742
100.1  993.38037
100  1074.3372
99.9  1183.5545
99.8  1192.3306
99.7  1293.237
99.6  1394.0544
99.5  1409.6818
99.4  1465.375
99.3  1438.1734
99.2  1385.493
99.1  1174.3261
99  927.54149
98.9  668.4121
98.8  459.77465
98.7  283.12459
98.6  166.02758
98.5  125.29633
98.4  90.001806
98.3  64.188355
98.2  71.060035
98.1  61.333521
98  62.032088
97.9  50.844261
97.8  55.794305
97.7  53.868605
97.6  51.602023
97.5  44.607284
97.4  50.098915
97.3  36.364639
97.2  43.381259
97.1  39.758564
97  51.296425