# Region:            Si2p (29)
# Acquisition Date:  11/08/19 21:29:45 UTC
# Analysis Method:   XPS
# Analyzer:          Phoibos
# Analyzer Lens:     MediumArea:1.5kV
# Analyzer Slit:     4:3x20\B:open
# Scan Mode:         FixedAnalyzerTransmission
# Curves/Scan:       1
# Values/Curve:      171
# Dwell Time:        0.1
# Excitation Energy: 1486.71
# Binding Energy:    114
# Pass Energy:       10
# Bias Voltage:      90
# Detector Voltage:  1900
# Eff. Workfunction: 4.395
# Source:            Focus
# Comment:           5 grados
#
# Cycle: 0
# Number of Scans: 15
#
# Cycle: 0, Curve: 0
# Acquisition Date: 11/08/19 21:29:45 UTC
#
# ColumnLabels: energy counts/s
#
114  130.10238
113.9  133.01405
113.8  151.37078
113.7  137.53718
113.6  132.2409
113.5  135.10866
113.4  140.29283
113.3  143.47301
113.2  114.24113
113.1  120.78246
113  127.17236
112.9  117.71525
112.8  124.39216
112.7  124.19258
112.6  121.97004
112.5  120.82658
112.4  121.33767
112.3  129.19786
112.2  121.4892
112.1  124.59198
112  117.79271
111.9  105.87643
111.8  113.17461
111.7  109.2861
111.6  112.83146
111.5  108.61086
111.4  109.32728
111.3  113.71692
111.2  107.9974
111.1  113.28394
111  119.88453
110.9  107.70052
110.8  97.908391
110.7  101.20566
110.6  92.967245
110.5  92.240762
110.4  103.21393
110.3  109.34065
110.2  93.906087
110.1  100.33258
110  100.06874
109.9  95.707828
109.8  94.933995
109.7  92.162979
109.6  99.502703
109.5  93.817145
109.4  93.010597
109.3  96.332221
109.2  85.051802
109.1  95.589955
109  89.523524
108.9  90.497858
108.8  90.408704
108.7  85.734633
108.6  91.580959
108.5  88.998471
108.4  81.63347
108.3  83.869927
108.2  86.105989
108.1  85.237418
108  97.428253
107.9  94.450935
107.8  89.415342
107.7  77.245074
107.6  85.293023
107.5  86.64724
107.4  84.968219
107.3  97.042884
107.2  80.84332
107.1  71.321776
107  83.632324
106.9  93.46832
106.8  88.620268
106.7  107.0879
106.6  108.12687
106.5  125.23881
106.4  137.00271
106.3  150.20997
106.2  175.07215
106.1  204.72203
106  218.29532
105.9  264.44741
105.8  313.05795
105.7  392.30089
105.6  454.73059
105.5  545.86025
105.4  591.95159
105.3  708.23212
105.2  875.42076
105.1  918.90944
105  1043.1903
104.9  1130.0437
104.8  1280.1391
104.7  1349.4712
104.6  1430.1595
104.5  1519.2257
104.4  1591.0318
104.3  1596.639
104.2  1599.0036
104.1  1496.4868
104  1419.1491
103.9  1420.9615
103.8  1343.0829
103.7  1217.2887
103.6  1108.4318
103.5  1045.3918
103.4  939.36095
103.3  864.99397
103.2  751.97193
103.1  654.83877
103  596.83558
102.9  561.80709
102.8  461.50168
102.7  428.10678
102.6  368.02112
102.5  322.99631
102.4  280.19167
102.3  260.49112
102.2  236.92122
102.1  192.58214
102  197.77468
101.9  186.19724
101.8  162.04114
101.7  156.91207
101.6  133.93165
101.5  130.21842
101.4  146.96255
101.3  135.82908
101.2  136.70389
101.1  126.16173
101  123.23076
100.9  124.95446
100.8  125.4483
100.7  138.69275
100.6  123.19257
100.5  133.79744
100.4  163.99179
100.3  179.69246
100.2  228.1212
100.1  267.67621
100  308.50492
99.9  311.23565
99.8  328.35926
99.7  354.28696
99.6  378.68351
99.5  412.87116
99.4  429.12674
99.3  386.6692
99.2  312.49125
99.1  250.62333
99  186.18315
98.9  136.48778
98.8  89.378525
98.7  83.696851
98.6  70.351931
98.5  63.398555
98.4  48.466541
98.3  47.629315
98.2  45.038849
98.1  61.832278
98  49.230372
97.9  48.860179
97.8  44.953857
97.7  45.697515
97.6  45.073072
97.5  47.236487
97.4  57.337016
97.3  56.089174
97.2  59.435593
97.1  50.970076
97  48.807324