# Region:            Si2p (2)
# Acquisition Date:  11/07/19 19:22:32 UTC
# Analysis Method:   XPS
# Analyzer:          Phoibos
# Analyzer Lens:     MediumArea:1.5kV
# Analyzer Slit:     4:3x20\B:open
# Scan Mode:         FixedAnalyzerTransmission
# Curves/Scan:       1
# Values/Curve:      171
# Dwell Time:        0.1
# Excitation Energy: 1486.71
# Binding Energy:    114
# Pass Energy:       10
# Bias Voltage:      90
# Detector Voltage:  1900
# Eff. Workfunction: 4.395
# Source:            Focus
# Comment:           
#
# Cycle: 0
# Number of Scans: 15
#
# Cycle: 0, Curve: 0
# Acquisition Date: 11/07/19 19:22:32 UTC
#
# ColumnLabels: energy counts/s
#
114  98.853988
113.9  88.07156
113.8  85.492839
113.7  79.120902
113.6  85.903186
113.5  81.986337
113.4  94.332759
113.3  87.332219
113.2  88.147278
113.1  85.285163
113  80.026785
112.9  83.970937
112.8  86.052246
112.7  86.676436
112.6  90.667589
112.5  91.41719
112.4  99.416774
112.3  89.500727
112.2  93.523334
112.1  83.192231
112  89.568843
111.9  91.798564
111.8  82.782662
111.7  79.485771
111.6  74.476317
111.5  83.022632
111.4  79.570987
111.3  79.619944
111.2  84.283046
111.1  83.564369
111  97.891517
110.9  85.599247
110.8  81.574027
110.7  80.262454
110.6  69.109958
110.5  66.763544
110.4  70.214873
110.3  80.96398
110.2  75.479622
110.1  79.142021
110  71.635387
109.9  81.465631
109.8  81.171784
109.7  76.43525
109.6  87.512189
109.5  78.316525
109.4  69.763918
109.3  71.792042
109.2  75.573562
109.1  72.656545
109  83.028116
108.9  78.372694
108.8  75.507293
108.7  68.050951
108.6  65.267485
108.5  72.509501
108.4  67.48494
108.3  71.80206
108.2  81.345348
108.1  84.6544
108  109.63994
107.9  112.1413
107.8  95.636267
107.7  103.07508
107.6  113.84537
107.5  117.31871
107.4  130.50068
107.3  161.82235
107.2  178.25779
107.1  180.2668
107  230.20059
106.9  281.80913
106.8  314.25743
106.7  390.07196
106.6  450.90684
106.5  530.25131
106.4  613.8253
106.3  706.14138
106.2  827.93897
106.1  935.81304
106  1042.3998
105.9  1154.8741
105.8  1265.2043
105.7  1373.0066
105.6  1441.4365
105.5  1568.7697
105.4  1626.709
105.3  1650.3528
105.2  1686.2421
105.1  1711.1544
105  1734.3765
104.9  1704.6076
104.8  1644.4398
104.7  1529.2938
104.6  1444.8315
104.5  1308.0956
104.4  1229.1546
104.3  1135.9413
104.2  1043.6952
104.1  971.07393
104  842.02114
103.9  729.34625
103.8  642.8722
103.7  565.76119
103.6  472.35969
103.5  436.1451
103.4  361.5269
103.3  333.36657
103.2  281.30401
103.1  257.92833
103  225.08199
102.9  201.82485
102.8  180.39058
102.7  157.87439
102.6  151.79037
102.5  142.11662
102.4  127.27789
102.3  120.89462
102.2  122.94408
102.1  114.43757
102  104.40775
101.9  84.459906
101.8  86.043039
101.7  91.040416
101.6  79.587849
101.5  72.193625
101.4  65.457744
101.3  65.032252
101.2  75.635636
101.1  74.515482
101  76.04979
100.9  61.90484
100.8  65.516438
100.7  71.755805
100.6  69.884887
100.5  83.512711
100.4  76.476692
100.3  70.448443
100.2  58.616717
100.1  68.32223
100  66.068199
99.9  78.110459
99.8  84.039536
99.7  67.656743
99.6  69.059992
99.5  61.473251
99.4  53.735421
99.3  58.892432
99.2  57.471255
99.1  63.308226
99  61.77529
98.9  56.704039
98.8  64.281922
98.7  66.497259
98.6  61.883794
98.5  55.672742
98.4  62.61861
98.3  60.362501
98.2  63.684091
98.1  74.790198
98  65.194216
97.9  62.863541
97.8  57.742809
97.7  47.211339
97.6  55.675353
97.5  55.28799
97.4  64.783025
97.3  63.860405
97.2  62.760245
97.1  56.436196
97  53.699997