# Region:            Si2p (33)
# Acquisition Date:  11/08/19 22:30:19 UTC
# Analysis Method:   XPS
# Analyzer:          Phoibos
# Analyzer Lens:     MediumArea:1.5kV
# Analyzer Slit:     4:3x20\B:open
# Scan Mode:         FixedAnalyzerTransmission
# Curves/Scan:       1
# Values/Curve:      171
# Dwell Time:        0.1
# Excitation Energy: 1486.71
# Binding Energy:    114
# Pass Energy:       10
# Bias Voltage:      90
# Detector Voltage:  1900
# Eff. Workfunction: 4.395
# Source:            Focus
# Comment:           45 grados
#
# Cycle: 0
# Number of Scans: 15
#
# Cycle: 0, Curve: 0
# Acquisition Date: 11/08/19 22:30:19 UTC
#
# ColumnLabels: energy counts/s
#
114  91.201269
113.9  82.6382
113.8  91.920303
113.7  93.859981
113.6  95.806843
113.5  92.443474
113.4  89.924051
113.3  79.587987
113.2  73.993784
113.1  83.990136
113  85.425705
112.9  88.044854
112.8  75.987764
112.7  65.584218
112.6  59.152061
112.5  76.308022
112.4  71.311554
112.3  76.682475
112.2  70.297691
112.1  71.858888
112  66.703517
111.9  64.597191
111.8  72.915035
111.7  60.539114
111.6  67.323384
111.5  75.390507
111.4  75.571531
111.3  63.081428
111.2  60.272929
111.1  66.303145
111  72.569625
110.9  75.211406
110.8  68.176951
110.7  64.393102
110.6  64.845937
110.5  64.644452
110.4  66.285557
110.3  73.299767
110.2  72.042483
110.1  60.668783
110  53.460321
109.9  67.683737
109.8  68.840519
109.7  68.244988
109.6  71.494938
109.5  62.203364
109.4  63.598819
109.3  51.713852
109.2  58.082123
109.1  66.742652
109  66.470685
108.9  64.978866
108.8  58.321478
108.7  58.879206
108.6  61.692324
108.5  69.648658
108.4  54.463539
108.3  58.514371
108.2  57.872603
108.1  53.351073
108  55.697611
107.9  64.119214
107.8  54.586423
107.7  51.549737
107.6  53.925754
107.5  61.335094
107.4  58.564215
107.3  51.341773
107.2  60.145205
107.1  66.265451
107  64.597771
106.9  55.937339
106.8  58.816865
106.7  67.689313
106.6  73.042531
106.5  75.914212
106.4  76.901849
106.3  93.693903
106.2  93.204194
106.1  120.69618
106  145.90312
105.9  161.21007
105.8  205.26692
105.7  227.35295
105.6  259.3828
105.5  305.79381
105.4  356.63378
105.3  437.27167
105.2  466.03762
105.1  547.13457
105  633.41645
104.9  723.09487
104.8  827.09422
104.7  864.39418
104.6  897.16597
104.5  934.85454
104.4  1007.977
104.3  993.59917
104.2  1027.1391
104.1  1046.4908
104  984.53054
103.9  988.00079
103.8  924.9829
103.7  867.21757
103.6  802.01472
103.5  755.41409
103.4  699.66639
103.3  619.48152
103.2  593.59569
103.1  501.60892
103  442.41812
102.9  416.21878
102.8  373.08929
102.7  331.665
102.6  314.87776
102.5  246.81086
102.4  227.3206
102.3  192.94097
102.2  183.80084
102.1  162.21336
102  145.01056
101.9  138.67152
101.8  119.59825
101.7  117.6184
101.6  102.55281
101.5  98.853328
101.4  95.668816
101.3  86.311603
101.2  85.984749
101.1  75.001774
101  75.008873
100.9  77.177014
100.8  73.811727
100.7  87.00337
100.6  77.190408
100.5  83.605554
100.4  86.957913
100.3  93.498207
100.2  92.132809
100.1  115.26123
100  141.19818
99.9  116.3786
99.8  113.58349
99.7  135.37334
99.6  158.52
99.5  143.58079
99.4  140.85079
99.3  149.27974
99.2  131.89706
99.1  116.83167
99  79.851094
98.9  69.899646
98.8  58.380736
98.7  50.894709
98.6  41.666957
98.5  32.546102
98.4  41.641331
98.3  39.285425
98.2  37.263964
98.1  44.539298
98  37.877106
97.9  38.731607
97.8  38.061026
97.7  38.286929
97.6  32.091838
97.5  31.912595
97.4  32.793044
97.3  31.962093
97.2  34.260917
97.1  41.805524
97  34.160281