# Region:            Si2p (2)
# Acquisition Date:  11/07/19 21:17:43 UTC
# Analysis Method:   XPS
# Analyzer:          Phoibos
# Analyzer Lens:     MediumArea:1.5kV
# Analyzer Slit:     4:3x20\B:open
# Scan Mode:         FixedAnalyzerTransmission
# Curves/Scan:       1
# Values/Curve:      171
# Dwell Time:        0.1
# Excitation Energy: 1486.71
# Binding Energy:    114
# Pass Energy:       10
# Bias Voltage:      90
# Detector Voltage:  1900
# Eff. Workfunction: 4.395
# Source:            Focus
# Comment:           
#
# Cycle: 0
# Number of Scans: 15
#
# Cycle: 0, Curve: 0
# Acquisition Date: 11/07/19 21:17:43 UTC
#
# ColumnLabels: energy counts/s
#
114  84.424513
113.9  82.689373
113.8  85.091705
113.7  91.015967
113.6  90.637631
113.5  85.378905
113.4  92.41322
113.3  93.163745
113.2  100.52104
113.1  98.268968
113  86.643816
112.9  82.071507
112.8  78.19937
112.7  83.202051
112.6  78.960482
112.5  92.751343
112.4  94.171293
112.3  92.517972
112.2  77.756436
112.1  77.031395
112  94.675787
111.9  77.64176
111.8  68.904031
111.7  80.91375
111.6  88.596901
111.5  71.456413
111.4  70.348706
111.3  92.23787
111.2  78.483547
111.1  70.413555
111  82.256161
110.9  74.75292
110.8  74.554973
110.7  74.511516
110.6  87.89791
110.5  79.380829
110.4  79.661903
110.3  78.399864
110.2  67.486876
110.1  71.065032
110  64.941438
109.9  79.080685
109.8  74.239633
109.7  79.970304
109.6  72.219818
109.5  65.181276
109.4  71.084328
109.3  71.270613
109.2  59.193265
109.1  79.509772
109  74.891568
108.9  61.365864
108.8  75.406837
108.7  66.434328
108.6  66.176679
108.5  71.197212
108.4  75.374588
108.3  75.902211
108.2  78.912776
108.1  76.746487
108  90.965201
107.9  96.459218
107.8  88.339962
107.7  102.36817
107.6  106.04283
107.5  101.16434
107.4  120.19475
107.3  130.18958
107.2  136.10454
107.1  172.56019
107  186.43972
106.9  220.15612
106.8  275.5329
106.7  305.07535
106.6  368.37342
106.5  435.98978
106.4  507.99971
106.3  570.07786
106.2  687.74588
106.1  772.45986
106  909.1321
105.9  1039.4324
105.8  1137.9087
105.7  1260.8381
105.6  1347.7143
105.5  1477.4432
105.4  1522.7263
105.3  1619.6123
105.2  1672.9287
105.1  1733.9387
105  1721.1418
104.9  1697.3932
104.8  1638.809
104.7  1637.1469
104.6  1537.3722
104.5  1450.6966
104.4  1325.3191
104.3  1292.1118
104.2  1203.2276
104.1  1042.7624
104  916.81671
103.9  799.018
103.8  730.44907
103.7  636.61959
103.6  533.66926
103.5  472.44935
103.4  413.98102
103.3  334.08819
103.2  294.85631
103.1  258.33308
103  216.81508
102.9  197.85205
102.8  189.24799
102.7  155.67289
102.6  154.32428
102.5  149.97665
102.4  119.5237
102.3  119.94329
102.2  102.78637
102.1  105.44048
102  94.171265
101.9  84.271025
101.8  83.938759
101.7  73.267475
101.6  75.857012
101.5  78.803295
101.4  65.038727
101.3  70.496905
101.2  66.734882
101.1  56.320399
101  56.323163
100.9  63.154727
100.8  66.941369
100.7  66.750336
100.6  69.487849
100.5  83.096894
100.4  74.935429
100.3  81.985769
100.2  88.062573
100.1  91.758559
100  78.685542
99.9  84.614083
99.8  92.372915
99.7  91.657397
99.6  103.84269
99.5  92.818628
99.4  86.018726
99.3  71.397808
99.2  71.134647
99.1  62.714799
99  59.6366
98.9  52.591811
98.8  63.032403
98.7  59.550778
98.6  54.673702
98.5  52.579615
98.4  47.420249
98.3  55.319729
98.2  54.662994
98.1  47.524277
98  53.025823
97.9  52.5357
97.8  68.075923
97.7  67.084484
97.6  57.851839
97.5  51.270567
97.4  58.298385
97.3  66.175887
97.2  61.029605
97.1  51.823442
97  57.280029