# Region:            Si2p (48)
# Acquisition Date:  11/09/19 03:06:15 UTC
# Analysis Method:   XPS
# Analyzer:          Phoibos
# Analyzer Lens:     MediumArea:1.5kV
# Analyzer Slit:     4:3x20\B:open
# Scan Mode:         FixedAnalyzerTransmission
# Curves/Scan:       1
# Values/Curve:      171
# Dwell Time:        0.1
# Excitation Energy: 1486.71
# Binding Energy:    114
# Pass Energy:       10
# Bias Voltage:      90
# Detector Voltage:  1900
# Eff. Workfunction: 4.395
# Source:            Focus
# Comment:           55 grados
#
# Cycle: 0
# Number of Scans: 15
#
# Cycle: 0, Curve: 0
# Acquisition Date: 11/09/19 03:06:15 UTC
#
# ColumnLabels: energy counts/s
#
114  124.94834
113.9  122.32954
113.8  129.18068
113.7  127.02126
113.6  129.69778
113.5  128.96486
113.4  127.49179
113.3  124.79621
113.2  138.78225
113.1  138.92137
113  137.33605
112.9  119.53608
112.8  119.17791
112.7  129.53786
112.6  125.98337
112.5  110.39914
112.4  118.11101
112.3  114.32919
112.2  115.84361
112.1  119.19175
112  113.12873
111.9  112.21376
111.8  109.41801
111.7  109.57483
111.6  106.65685
111.5  109.3192
111.4  106.83246
111.3  119.53256
111.2  111.30307
111.1  116.55413
111  105.14142
110.9  100.36774
110.8  103.74138
110.7  103.7009
110.6  100.76154
110.5  111.79658
110.4  100.1462
110.3  98.899443
110.2  98.332382
110.1  96.853454
110  93.833799
109.9  96.486197
109.8  95.179159
109.7  101.52562
109.6  98.132826
109.5  92.58229
109.4  91.302236
109.3  100.86565
109.2  96.420691
109.1  98.952896
109  99.849906
108.9  95.697537
108.8  94.947693
108.7  99.307337
108.6  94.565591
108.5  102.26292
108.4  93.781641
108.3  94.197572
108.2  97.133471
108.1  97.067345
108  91.150158
107.9  94.834686
107.8  88.332336
107.7  89.240763
107.6  90.009816
107.5  79.219666
107.4  85.052498
107.3  100.48071
107.2  93.079901
107.1  95.880748
107  78.106605
106.9  78.026776
106.8  92.174874
106.7  83.284003
106.6  77.89473
106.5  83.849132
106.4  87.447384
106.3  89.558855
106.2  84.049287
106.1  86.70679
106  89.24552
105.9  83.192015
105.8  95.276801
105.7  97.546341
105.6  82.477205
105.5  86.602312
105.4  93.23562
105.3  99.917841
105.2  109.42316
105.1  124.05735
105  110.80967
104.9  123.71654
104.8  141.39225
104.7  142.31779
104.6  162.69393
104.5  197.01468
104.4  212.83986
104.3  238.49455
104.2  269.52162
104.1  273.25793
104  299.11868
103.9  339.02638
103.8  371.76716
103.7  373.3745
103.6  414.79062
103.5  410.38384
103.4  402.59332
103.3  417.90778
103.2  432.18057
103.1  457.45654
103  443.41937
102.9  450.44377
102.8  442.32179
102.7  457.00893
102.6  446.03015
102.5  434.3884
102.4  436.31974
102.3  424.58857
102.2  422.31042
102.1  398.23363
102  393.41638
101.9  377.47248
101.8  365.37509
101.7  339.60442
101.6  330.72008
101.5  309.36648
101.4  320.98191
101.3  332.91012
101.2  300.97147
101.1  303.87106
101  288.79485
100.9  303.03364
100.8  320.33767
100.7  322.76735
100.6  332.27949
100.5  330.13311
100.4  368.895
100.3  419.08153
100.2  466.52771
100.1  464.44955
100  471.79287
99.9  496.53728
99.8  554.05718
99.7  539.3528
99.6  572.8746
99.5  525.14355
99.4  524.27792
99.3  491.82752
99.2  426.69545
99.1  366.14181
99  285.4281
98.9  199.18647
98.8  147.4571
98.7  85.766826
98.6  68.570564
98.5  50.907727
98.4  44.824858
98.3  42.915372
98.2  46.50119
98.1  37.282439
98  39.389185
97.9  37.577294
97.8  30.268784
97.7  28.658012
97.6  25.776175
97.5  32.071751
97.4  35.73826
97.3  28.743319
97.2  30.279043
97.1  32.074607
97  33.673517