# Region:            Si2p (6)
# Acquisition Date:  11/08/19 00:58:44 UTC
# Analysis Method:   XPS
# Analyzer:          Phoibos
# Analyzer Lens:     MediumArea:1.5kV
# Analyzer Slit:     4:3x20\B:open
# Scan Mode:         FixedAnalyzerTransmission
# Curves/Scan:       1
# Values/Curve:      171
# Dwell Time:        0.1
# Excitation Energy: 1486.71
# Binding Energy:    114
# Pass Energy:       10
# Bias Voltage:      90
# Detector Voltage:  1900
# Eff. Workfunction: 4.395
# Source:            Focus
# Comment:           
#
# Cycle: 0
# Number of Scans: 15
#
# Cycle: 0, Curve: 0
# Acquisition Date: 11/08/19 00:58:44 UTC
#
# ColumnLabels: energy counts/s
#
114  114.96215
113.9  98.115475
113.8  96.365647
113.7  94.789577
113.6  97.233906
113.5  87.811859
113.4  95.523448
113.3  102.52248
113.2  102.77036
113.1  110.23917
113  103.02892
112.9  87.624563
112.8  86.765304
112.7  88.75159
112.6  91.447885
112.5  102.56135
112.4  92.893066
112.3  87.637763
112.2  113.25054
112.1  98.571443
112  90.347396
111.9  79.331751
111.8  79.354949
111.7  73.682391
111.6  79.306375
111.5  71.241763
111.4  88.320663
111.3  82.366222
111.2  70.558792
111.1  83.690757
111  84.643701
110.9  86.329415
110.8  82.600541
110.7  75.737384
110.6  86.246012
110.5  72.480117
110.4  80.195679
110.3  75.478085
110.2  79.193478
110.1  74.230751
110  63.270761
109.9  64.545055
109.8  69.911787
109.7  88.33554
109.6  80.017194
109.5  77.84006
109.4  78.993736
109.3  75.556171
109.2  61.753502
109.1  71.323233
109  65.51956
108.9  64.741462
108.8  70.177937
108.7  69.094503
108.6  72.7454
108.5  78.028148
108.4  80.360192
108.3  70.151677
108.2  65.748691
108.1  66.060837
108  65.569352
107.9  59.538145
107.8  78.727987
107.7  87.807263
107.6  66.640903
107.5  79.460553
107.4  87.303668
107.3  92.679993
107.2  110.64585
107.1  124.65088
107  143.64884
106.9  176.11619
106.8  200.87179
106.7  218.63229
106.6  263.70111
106.5  317.56131
106.4  368.34336
106.3  478.51362
106.2  549.80568
106.1  637.5742
106  678.18959
105.9  830.62058
105.8  951.99647
105.7  1102.6336
105.6  1176.4152
105.5  1306.4278
105.4  1480.7295
105.3  1581.541
105.2  1578.5157
105.1  1687.7284
105  1713.6524
104.9  1748.3697
104.8  1773.6253
104.7  1710.796
104.6  1658.4974
104.5  1573.8729
104.4  1495.1301
104.3  1450.0297
104.2  1374.7567
104.1  1237.3136
104  1094.7
103.9  952.62186
103.8  872.86934
103.7  748.73252
103.6  624.78171
103.5  534.76787
103.4  475.70102
103.3  396.86597
103.2  332.43942
103.1  308.34729
103  260.42784
102.9  220.78963
102.8  189.24253
102.7  172.32814
102.6  146.45463
102.5  142.73354
102.4  124.73322
102.3  104.61198
102.2  99.200093
102.1  102.9238
102  104.07569
101.9  89.858288
101.8  80.849193
101.7  72.093198
101.6  85.410718
101.5  70.504998
101.4  72.011341
101.3  71.384848
101.2  62.060106
101.1  73.411154
101  77.200317
100.9  81.707586
100.8  74.295225
100.7  73.655573
100.6  66.503211
100.5  88.078074
100.4  91.072073
100.3  96.55415
100.2  109.08446
100.1  131.85879
100  129.49125
99.9  120.12528
99.8  119.21225
99.7  136.65361
99.6  151.8987
99.5  158.99971
99.4  147.23882
99.3  121.77559
99.2  90.964059
99.1  62.529429
99  65.580878
98.9  74.700654
98.8  65.324436
98.7  57.130321
98.6  61.337423
98.5  56.907912
98.4  41.577531
98.3  48.563281
98.2  54.963126
98.1  56.44357
98  54.66808
97.9  64.708924
97.8  56.295539
97.7  58.942922
97.6  53.830691
97.5  53.586524
97.4  51.245412
97.3  61.343135
97.2  56.734927
97.1  54.921015
97  44.770438