# Region:            Si2p (36)
# Acquisition Date:  11/08/19 23:53:36 UTC
# Analysis Method:   XPS
# Analyzer:          Phoibos
# Analyzer Lens:     MediumArea:1.5kV
# Analyzer Slit:     4:3x20\B:open
# Scan Mode:         FixedAnalyzerTransmission
# Curves/Scan:       1
# Values/Curve:      171
# Dwell Time:        0.1
# Excitation Energy: 1486.71
# Binding Energy:    114
# Pass Energy:       10
# Bias Voltage:      90
# Detector Voltage:  1900
# Eff. Workfunction: 4.395
# Source:            Focus
# Comment:           5 grados
#
# Cycle: 0
# Number of Scans: 15
#
# Cycle: 0, Curve: 0
# Acquisition Date: 11/08/19 23:53:36 UTC
#
# ColumnLabels: energy counts/s
#
114  216.89847
113.9  212.63784
113.8  200.02184
113.7  201.72604
113.6  194.40341
113.5  188.35646
113.4  199.77462
113.3  189.46925
113.2  177.78013
113.1  179.07236
113  177.51453
112.9  190.12561
112.8  183.42127
112.7  190.97649
112.6  182.95663
112.5  177.58837
112.4  175.728
112.3  175.72427
112.2  167.73586
112.1  151.37554
112  181.03834
111.9  156.17926
111.8  143.69441
111.7  159.43257
111.6  161.67109
111.5  154.65471
111.4  167.17028
111.3  152.00998
111.2  167.0977
111.1  158.40769
111  159.82603
110.9  150.98804
110.8  158.57677
110.7  166.88504
110.6  155.51453
110.5  152.10814
110.4  147.10356
110.3  144.45156
110.2  131.74747
110.1  132.95285
110  130.83355
109.9  138.53321
109.8  138.30707
109.7  140.39424
109.6  145.99948
109.5  136.05945
109.4  132.59722
109.3  122.23792
109.2  139.59251
109.1  144.1269
109  145.88004
108.9  134.15245
108.8  135.80142
108.7  146.30661
108.6  134.30389
108.5  152.7408
108.4  140.36715
108.3  138.73884
108.2  131.06727
108.1  127.94553
108  145.75243
107.9  136.44562
107.8  135.91846
107.7  127.7976
107.6  122.18783
107.5  125.19458
107.4  119.33059
107.3  106.57723
107.2  124.03634
107.1  141.82685
107  127.32091
106.9  127.62927
106.8  122.27398
106.7  116.60675
106.6  117.44174
106.5  128.32784
106.4  100.86928
106.3  107.23485
106.2  120.80532
106.1  118.73833
106  137.01089
105.9  128.79934
105.8  142.05383
105.7  153.27767
105.6  163.8119
105.5  186.1193
105.4  175.43261
105.3  206.99874
105.2  200.65448
105.1  265.44823
105  280.11752
104.9  326.03743
104.8  376.35254
104.7  413.80368
104.6  460.56657
104.5  533.07462
104.4  594.69368
104.3  649.60951
104.2  745.30359
104.1  822.62202
104  832.94184
103.9  896.55452
103.8  955.12552
103.7  985.64394
103.6  937.61763
103.5  988.58572
103.4  972.81554
103.3  978.13977
103.2  923.72784
103.1  913.63765
103  915.26332
102.9  901.3616
102.8  854.61173
102.7  805.15533
102.6  733.84844
102.5  741.31472
102.4  743.43378
102.3  691.9351
102.2  632.1676
102.1  633.46442
102  546.60809
101.9  551.57871
101.8  508.40183
101.7  485.52391
101.6  443.57821
101.5  447.75357
101.4  406.73051
101.3  408.81278
101.2  384.46092
101.1  362.87476
101  350.89124
100.9  366.28115
100.8  386.76228
100.7  382.55197
100.6  379.31868
100.5  388.42818
100.4  430.47436
100.3  500.95081
100.2  556.58747
100.1  613.79132
100  696.59465
99.9  732.07898
99.8  760.86316
99.7  738.22147
99.6  804.48325
99.5  847.01111
99.4  868.86346
99.3  854.76092
99.2  779.48561
99.1  674.05407
99  507.17684
98.9  345.1592
98.8  250.78569
98.7  180.58716
98.6  113.73352
98.5  74.481743
98.4  71.844031
98.3  73.720602
98.2  56.121389
98.1  45.580111
98  51.460624
97.9  51.120598
97.8  44.894746
97.7  52.650578
97.6  39.789205
97.5  49.806641
97.4  51.586102
97.3  40.923028
97.2  44.925518
97.1  48.216521
97  50.522295