# Region:            Si2p (53)
# Acquisition Date:  11/11/19 17:00:54 UTC
# Analysis Method:   XPS
# Analyzer:          Phoibos
# Analyzer Lens:     MediumArea:1.5kV
# Analyzer Slit:     4:3x20\B:open
# Scan Mode:         FixedAnalyzerTransmission
# Curves/Scan:       1
# Values/Curve:      171
# Dwell Time:        0.1
# Excitation Energy: 1486.71
# Binding Energy:    114
# Pass Energy:       10
# Bias Voltage:      90
# Detector Voltage:  1900
# Eff. Workfunction: 4.395
# Source:            Focus
# Comment:           35 grados
#
# Cycle: 0
# Number of Scans: 15
#
# Cycle: 0, Curve: 0
# Acquisition Date: 11/11/19 17:00:54 UTC
#
# ColumnLabels: energy counts/s
#
114  217.66728
113.9  208.32228
113.8  207.24584
113.7  214.91061
113.6  199.31126
113.5  196.58529
113.4  211.26815
113.3  216.20827
113.2  203.9733
113.1  203.71564
113  200.89539
112.9  204.26286
112.8  202.70909
112.7  205.9221
112.6  198.66166
112.5  194.89926
112.4  192.47468
112.3  180.2509
112.2  178.49792
112.1  173.24625
112  177.75574
111.9  168.01117
111.8  155.74601
111.7  178.18852
111.6  163.03437
111.5  169.9822
111.4  155.23463
111.3  158.18057
111.2  154.26471
111.1  163.52393
111  163.22553
110.9  150.91058
110.8  156.38451
110.7  160.336
110.6  164.27029
110.5  149.14118
110.4  138.7121
110.3  154.63757
110.2  144.37582
110.1  145.24535
110  162.26404
109.9  144.91566
109.8  138.71623
109.7  139.63079
109.6  155.39652
109.5  149.11345
109.4  143.07031
109.3  151.90627
109.2  136.89067
109.1  138.32913
109  124.84165
108.9  136.61244
108.8  138.05213
108.7  138.49564
108.6  149.53157
108.5  140.22067
108.4  144.85188
108.3  135.70369
108.2  142.19764
108.1  130.03195
108  143.67404
107.9  154.27912
107.8  146.77213
107.7  130.85699
107.6  119.45323
107.5  128.24332
107.4  142.16683
107.3  132.48898
107.2  134.28268
107.1  135.34619
107  125.76261
106.9  122.85448
106.8  121.69265
106.7  131.28123
106.6  120.34034
106.5  128.66285
106.4  125.94182
106.3  122.61541
106.2  143.00101
106.1  129.90156
106  123.22938
105.9  122.95162
105.8  131.66833
105.7  128.9997
105.6  126.23203
105.5  134.09645
105.4  129.74638
105.3  138.49297
105.2  138.18548
105.1  122.56291
105  136.8779
104.9  150.46401
104.8  145.04244
104.7  143.74849
104.6  143.79053
104.5  154.35748
104.4  174.24841
104.3  157.26869
104.2  169.62891
104.1  176.02551
104  198.17216
103.9  210.71138
103.8  212.08645
103.7  201.32499
103.6  214.38494
103.5  241.50675
103.4  240.20842
103.3  245.86719
103.2  263.80162
103.1  251.36684
103  272.692
102.9  272.79513
102.8  293.92234
102.7  294.7084
102.6  291.42251
102.5  324.88641
102.4  338.96931
102.3  331.61421
102.2  333.42979
102.1  350.79962
102  325.36157
101.9  345.46899
101.8  353.68423
101.7  369.15738
101.6  361.41027
101.5  384.44151
101.4  387.39628
101.3  408.05345
101.2  400.39458
101.1  412.35696
101  472.06529
100.9  450.47769
100.8  475.25505
100.7  499.01089
100.6  516.19845
100.5  598.83451
100.4  663.97357
100.3  772.85093
100.2  849.35148
100.1  968.81461
100  1064.1271
99.9  1210.2754
99.8  1269.9316
99.7  1293.2668
99.6  1375.2196
99.5  1450.4455
99.4  1448.2021
99.3  1445.5299
99.2  1317.8592
99.1  1161.431
99  924.70601
98.9  662.17488
98.8  463.94713
98.7  294.7195
98.6  173.9257
98.5  128.3982
98.4  80.669119
98.3  74.725714
98.2  56.976358
98.1  56.038729
98  43.25484
97.9  34.695607
97.8  38.924
97.7  43.26882
97.6  40.64446
97.5  44.666122
97.4  47.407441
97.3  36.355756
97.2  36.274791
97.1  34.227083
97  35.079748