# Region:            Si2p (66)
# Acquisition Date:  11/11/19 20:53:19 UTC
# Analysis Method:   XPS
# Analyzer:          Phoibos
# Analyzer Lens:     MediumArea:1.5kV
# Analyzer Slit:     4:3x20\B:open
# Scan Mode:         FixedAnalyzerTransmission
# Curves/Scan:       1
# Values/Curve:      171
# Dwell Time:        0.1
# Excitation Energy: 1486.71
# Binding Energy:    114
# Pass Energy:       10
# Bias Voltage:      90
# Detector Voltage:  1900
# Eff. Workfunction: 4.395
# Source:            Focus
# Comment:           25 grados
#
# Cycle: 0
# Number of Scans: 15
#
# Cycle: 0, Curve: 0
# Acquisition Date: 11/11/19 20:53:19 UTC
#
# ColumnLabels: energy counts/s
#
114  303.88707
113.9  307.19558
113.8  277.96947
113.7  286.87831
113.6  282.02529
113.5  300.58883
113.4  268.50912
113.3  252.48496
113.2  274.16288
113.1  266.74184
113  262.78689
112.9  272.63269
112.8  271.62977
112.7  234.20571
112.6  257.64782
112.5  238.82645
112.4  230.69341
112.3  237.14
112.2  238.76262
112.1  225.08278
112  238.56476
111.9  226.33938
111.8  217.48878
111.7  211.28988
111.6  202.22189
111.5  207.14452
111.4  197.54625
111.3  202.81999
111.2  212.95161
111.1  196.21139
111  206.88544
110.9  209.19712
110.8  204.42031
110.7  192.44503
110.6  189.87752
110.5  188.71592
110.4  192.04182
110.3  201.25124
110.2  186.35705
110.1  189.76577
110  196.87235
109.9  192.11015
109.8  206.53254
109.7  196.87606
109.6  208.62624
109.5  189.98988
109.4  193.58391
109.3  181.28395
109.2  172.46063
109.1  169.52191
109  176.11235
108.9  150.05944
108.8  159.09463
108.7  174.7568
108.6  178.94258
108.5  157.72948
108.4  172.16832
108.3  158.80669
108.2  168.19064
108.1  170.89223
108  164.30731
107.9  149.55617
107.8  155.57757
107.7  170.73166
107.6  150.71602
107.5  139.10259
107.4  149.61481
107.3  156.80357
107.2  158.11677
107.1  157.21301
107  144.59841
106.9  157.26857
106.8  155.05765
106.7  147.3047
106.6  163.27448
106.5  148.53455
106.4  164.63717
106.3  160.50525
106.2  168.44567
106.1  168.41541
106  152.20013
105.9  141.50798
105.8  152.61974
105.7  134.56291
105.6  120.77842
105.5  135.97156
105.4  142.34894
105.3  149.92157
105.2  140.37003
105.1  145.66387
105  148.61616
104.9  138.36393
104.8  136.62266
104.7  127.1496
104.6  128.65386
104.5  126.75666
104.4  134.10573
104.3  131.80289
104.2  143.23341
104.1  138.09375
104  122.69984
103.9  135.11315
103.8  153.11508
103.7  164.03153
103.6  160.60296
103.5  149.31954
103.4  130.07175
103.3  138.07415
103.2  135.14985
103.1  141.34432
103  151.01359
102.9  156.9752
102.8  155.74659
102.7  145.82896
102.6  153.46751
102.5  144.05307
102.4  149.07492
102.3  159.72582
102.2  174.416
102.1  172.81283
102  183.65322
101.9  186.19608
101.8  182.65237
101.7  189.84754
101.6  201.48194
101.5  210.10994
101.4  213.42247
101.3  220.26923
101.2  237.6121
101.1  271.04071
101  289.73684
100.9  306.14601
100.8  374.15565
100.7  386.18477
100.6  441.07717
100.5  539.03987
100.4  634.17724
100.3  777.44948
100.2  1016.0284
100.1  1220.9751
100  1416.2406
99.9  1673.4538
99.8  1856.2508
99.7  2035.5756
99.6  2100.9586
99.5  2258.5417
99.4  2376.2813
99.3  2460.639
99.2  2505.3205
99.1  2326.8541
99  1942.9603
98.9  1483.5241
98.8  983.78185
98.7  615.33076
98.6  378.06716
98.5  236.93489
98.4  149.50367
98.3  117.64846
98.2  87.663716
98.1  68.358098
98  55.526692
97.9  50.703187
97.8  45.902667
97.7  39.488104
97.6  45.038228
97.5  45.108735
97.4  40.862225
97.3  32.680626
97.2  30.54658
97.1  43.138652
97  39.553055