# Region:            Si2p (50)
# Acquisition Date:  11/11/19 16:13:16 UTC
# Analysis Method:   XPS
# Analyzer:          Phoibos
# Analyzer Lens:     MediumArea:1.5kV
# Analyzer Slit:     4:3x20\B:open
# Scan Mode:         FixedAnalyzerTransmission
# Curves/Scan:       1
# Values/Curve:      171
# Dwell Time:        0.1
# Excitation Energy: 1486.71
# Binding Energy:    114
# Pass Energy:       10
# Bias Voltage:      90
# Detector Voltage:  1900
# Eff. Workfunction: 4.395
# Source:            Focus
# Comment:           5 grados
#
# Cycle: 0
# Number of Scans: 15
#
# Cycle: 0, Curve: 0
# Acquisition Date: 11/11/19 16:13:16 UTC
#
# ColumnLabels: energy counts/s
#
114  280.94234
113.9  319.35632
113.8  288.25313
113.7  299.86427
113.6  315.99364
113.5  298.45583
113.4  286.44544
113.3  276.12898
113.2  259.508
113.1  268.23305
113  268.36102
112.9  287.45176
112.8  257.88832
112.7  247.29569
112.6  253.38936
112.5  245.80559
112.4  248.38722
112.3  238.04064
112.2  242.33449
112.1  249.4471
112  241.80311
111.9  223.97435
111.8  249.50976
111.7  239.42932
111.6  232.72215
111.5  218.33309
111.4  227.4476
111.3  227.53532
111.2  229.31713
111.1  228.42891
111  239.45492
110.9  215.85983
110.8  216.76128
110.7  203.75322
110.6  213.43821
110.5  224.55588
110.4  203.4748
110.3  200.92398
110.2  191.75708
110.1  197.98799
110  211.05212
109.9  197.84292
109.8  221.12365
109.7  210.91177
109.6  205.3525
109.5  183.24995
109.4  188.59777
109.3  193.38162
109.2  192.97209
109.1  203.44009
109  197.20044
108.9  193.4842
108.8  198.97678
108.7  190.92506
108.6  195.66169
108.5  210.88881
108.4  189.98052
108.3  189.00002
108.2  196.59173
108.1  194.68066
108  198.35399
107.9  166.96131
107.8  160.76835
107.7  164.06501
107.6  193.55836
107.5  172.31445
107.4  176.59293
107.3  165.08501
107.2  174.93486
107.1  167.44317
107  185.04264
106.9  178.39907
106.8  171.12461
106.7  185.12992
106.6  173.04706
106.5  172.35807
106.4  166.29091
106.3  155.90875
106.2  181.02828
106.1  175.88021
106  155.76208
105.9  172.60378
105.8  172.11302
105.7  165.50307
105.6  176.92858
105.5  176.72131
105.4  173.63345
105.3  170.24119
105.2  161.72257
105.1  177.70222
105  173.27609
104.9  188.56864
104.8  179.039
104.7  184.8858
104.6  202.61413
104.5  209.82733
104.4  198.01351
104.3  204.52063
104.2  211.67357
104.1  240.0935
104  238.40592
103.9  249.69024
103.8  274.23844
103.7  271.63147
103.6  262.31087
103.5  288.46028
103.4  338.88706
103.3  324.03071
103.2  335.51773
103.1  358.63365
103  339.78316
102.9  372.7928
102.8  378.77795
102.7  380.97938
102.6  386.68604
102.5  399.82141
102.4  411.10475
102.3  424.18364
102.2  429.40188
102.1  423.52138
102  461.3534
101.9  476.22917
101.8  489.44225
101.7  486.80722
101.6  451.70286
101.5  490.55243
101.4  525.287
101.3  535.02855
101.2  526.03694
101.1  573.76908
101  598.06819
100.9  610.69759
100.8  653.14265
100.7  684.3507
100.6  718.6742
100.5  783.34265
100.4  866.85577
100.3  1033.3879
100.2  1198.9108
100.1  1391.1929
100  1555.6418
99.9  1665.7445
99.8  1798.3109
99.7  1824.9267
99.6  1963.0158
99.5  2115.8303
99.4  2213.8246
99.3  2193.28
99.2  2061.3561
99.1  1905.1288
99  1483.3321
98.9  996.48709
98.8  698.59151
98.7  446.39553
98.6  264.34644
98.5  174.23591
98.4  107.08116
98.3  81.768593
98.2  74.066577
98.1  74.787223
98  73.194263
97.9  66.622401
97.8  52.897376
97.7  55.095283
97.6  53.183332
97.5  36.343029
97.4  44.858809
97.3  46.499857
97.2  49.229912
97.1  45.35569
97  44.384619