# Region:            Si2p (61)
# Acquisition Date:  11/11/19 19:29:05 UTC
# Analysis Method:   XPS
# Analyzer:          Phoibos
# Analyzer Lens:     MediumArea:1.5kV
# Analyzer Slit:     4:3x20\B:open
# Scan Mode:         FixedAnalyzerTransmission
# Curves/Scan:       1
# Values/Curve:      171
# Dwell Time:        0.1
# Excitation Energy: 1486.71
# Binding Energy:    114
# Pass Energy:       10
# Bias Voltage:      90
# Detector Voltage:  1900
# Eff. Workfunction: 4.395
# Source:            Focus
# Comment:           45 grados
#
# Cycle: 0
# Number of Scans: 15
#
# Cycle: 0, Curve: 0
# Acquisition Date: 11/11/19 19:29:05 UTC
#
# ColumnLabels: energy counts/s
#
114  212.63056
113.9  209.38542
113.8  209.25596
113.7  195.83038
113.6  202.61678
113.5  198.90438
113.4  175.43807
113.3  188.18452
113.2  194.6004
113.1  186.11541
113  176.54094
112.9  183.73068
112.8  197.41233
112.7  184.00082
112.6  201.0984
112.5  181.85168
112.4  164.02565
112.3  165.87545
112.2  179.75061
112.1  176.60374
112  161.20473
111.9  156.70173
111.8  155.2691
111.7  166.44
111.6  145.07981
111.5  151.05409
111.4  156.74359
111.3  158.21069
111.2  177.53919
111.1  168.07577
111  149.82744
110.9  158.63933
110.8  143.96043
110.7  146.59564
110.6  144.36924
110.5  135.83595
110.4  142.59651
110.3  154.96599
110.2  142.14
110.1  149.00987
110  149.47473
109.9  138.12346
109.8  149.65043
109.7  143.63836
109.6  140.17712
109.5  144.45047
109.4  147.28418
109.3  146.74518
109.2  142.62389
109.1  126.433
109  126.24169
108.9  126.36822
108.8  129.44516
108.7  136.21066
108.6  121.85871
108.5  128.98671
108.4  125.31841
108.3  116.36529
108.2  113.86472
108.1  123.78058
108  118.17749
107.9  111.81805
107.8  120.86938
107.7  119.11923
107.6  109.89783
107.5  128.66626
107.4  119.28088
107.3  112.39621
107.2  110.37447
107.1  117.13378
107  113.17526
106.9  123.01716
106.8  103.90487
106.7  105.56076
106.6  113.27742
106.5  118.87647
106.4  108.6212
106.3  111.17346
106.2  96.395273
106.1  98.195534
106  108.18191
105.9  110.90643
105.8  107.1072
105.7  95.781091
105.6  107.3337
105.5  112.02673
105.4  110.36544
105.3  104.73948
105.2  100.14819
105.1  107.86292
105  102.52532
104.9  119.68492
104.8  107.38472
104.7  102.35522
104.6  109.91912
104.5  113.22061
104.4  98.378908
104.3  106.52778
104.2  110.26133
104.1  111.50579
104  113.87693
103.9  112.40938
103.8  108.22907
103.7  111.69803
103.6  113.629
103.5  113.54417
103.4  105.28523
103.3  108.15231
103.2  111.22768
103.1  102.30923
103  115.85896
102.9  126.18642
102.8  121.14546
102.7  125.49879
102.6  113.73201
102.5  107.11141
102.4  130.66749
102.3  131.19093
102.2  146.69771
102.1  127.03118
102  138.76928
101.9  133.68813
101.8  148.32842
101.7  146.80424
101.6  160.25247
101.5  162.66414
101.4  169.72399
101.3  198.29123
101.2  204.4648
101.1  237.77866
101  249.74721
100.9  281.67348
100.8  293.91738
100.7  323.37592
100.6  369.25753
100.5  389.31142
100.4  491.66826
100.3  601.67451
100.2  688.3673
100.1  829.36011
100  1023.2723
99.9  1167.7551
99.8  1236.7096
99.7  1355.5867
99.6  1464.4483
99.5  1553.8543
99.4  1615.2341
99.3  1631.6906
99.2  1628.5367
99.1  1466.9979
99  1259.5062
98.9  983.99269
98.8  681.5068
98.7  435.65751
98.6  276.75537
98.5  157.51591
98.4  90.822926
98.3  75.718867
98.2  55.654934
98.1  45.935404
98  41.040476
97.9  41.720605
97.8  40.886305
97.7  44.071093
97.6  35.43634
97.5  38.266873
97.4  27.80501
97.3  33.105911
97.2  43.049254
97.1  32.093985
97  29.591937