# Region:            Si2p (65)
# Acquisition Date:  11/11/19 20:41:32 UTC
# Analysis Method:   XPS
# Analyzer:          Phoibos
# Analyzer Lens:     MediumArea:1.5kV
# Analyzer Slit:     4:3x20\B:open
# Scan Mode:         FixedAnalyzerTransmission
# Curves/Scan:       1
# Values/Curve:      171
# Dwell Time:        0.1
# Excitation Energy: 1486.71
# Binding Energy:    114
# Pass Energy:       10
# Bias Voltage:      90
# Detector Voltage:  1900
# Eff. Workfunction: 4.395
# Source:            Focus
# Comment:           15 grados
#
# Cycle: 0
# Number of Scans: 15
#
# Cycle: 0, Curve: 0
# Acquisition Date: 11/11/19 20:41:32 UTC
#
# ColumnLabels: energy counts/s
#
114  328.82978
113.9  331.81002
113.8  328.7114
113.7  321.21081
113.6  299.45328
113.5  287.65321
113.4  300.27752
113.3  269.9882
113.2  272.14874
113.1  280.5821
113  284.86718
112.9  278.66534
112.8  263.65572
112.7  269.87379
112.6  262.09048
112.5  264.53016
112.4  253.43191
112.3  256.88919
112.2  248.03889
112.1  260.63756
112  245.76983
111.9  273.46802
111.8  243.14362
111.7  228.14591
111.6  235.21321
111.5  233.26434
111.4  244.64147
111.3  241.17221
111.2  241.68717
111.1  247.82632
111  238.19234
110.9  210.50905
110.8  232.59808
110.7  221.73337
110.6  214.05729
110.5  202.63891
110.4  194.3784
110.3  197.2127
110.2  200.66707
110.1  218.13085
110  201.88093
109.9  186.79607
109.8  191.1962
109.7  191.83362
109.6  184.37321
109.5  185.25257
109.4  194.79279
109.3  194.22911
109.2  181.09205
109.1  176.96591
109  183.78798
108.9  187.34165
108.8  210.16049
108.7  181.19371
108.6  176.38447
108.5  172.42726
108.4  175.97897
108.3  177.59575
108.2  187.06023
108.1  185.72217
108  175.82701
107.9  180.50663
107.8  168.22506
107.7  173.30246
107.6  156.537
107.5  162.12934
107.4  162.9492
107.3  151.15053
107.2  148.6499
107.1  159.90691
107  155.33516
106.9  165.05299
106.8  161.58448
106.7  155.81606
106.6  147.24977
106.5  156.85721
106.4  147.31746
106.3  151.75619
106.2  165.1808
106.1  162.03589
106  161.04132
105.9  150.50129
105.8  150.27718
105.7  144.65338
105.6  151.59607
105.5  150.72888
105.4  165.67935
105.3  153.97293
105.2  140.56995
105.1  157.90902
105  160.43062
104.9  160.43785
104.8  150.19152
104.7  146.90169
104.6  139.9605
104.5  130.36736
104.4  150.57079
104.3  162.6828
104.2  140.07428
104.1  158.94239
104  154.29094
103.9  156.61414
103.8  158.3202
103.7  167.02323
103.6  155.01751
103.5  148.44847
103.4  149.43995
103.3  158.37644
103.2  161.76296
103.1  168.15288
103  153.36233
102.9  169.23625
102.8  155.65588
102.7  156.17043
102.6  155.72781
102.5  165.02096
102.4  179.85209
102.3  182.1748
102.2  181.81267
102.1  189.93568
102  183.64943
101.9  181.98282
101.8  200.92504
101.7  202.93544
101.6  218.02223
101.5  231.13647
101.4  226.77119
101.3  241.3634
101.2  260.36684
101.1  293.86649
101  321.79658
100.9  346.8223
100.8  381.21432
100.7  408.93046
100.6  451.44429
100.5  549.75232
100.4  643.21362
100.3  803.06681
100.2  1051.9361
100.1  1227.2014
100  1502.6979
99.9  1825.1372
99.8  2057.9394
99.7  2141.9915
99.6  2300.4255
99.5  2438.8047
99.4  2555.0895
99.3  2753.2835
99.2  2723.3928
99.1  2551.728
99  2154.1737
98.9  1653.1454
98.8  1140.385
98.7  731.324
98.6  473.72711
98.5  258.29965
98.4  157.3698
98.3  118.4344
98.2  88.354771
98.1  77.003602
98  70.449857
97.9  54.801069
97.8  50.440095
97.7  45.332072
97.6  55.210549
97.5  55.298296
97.4  54.140334
97.3  45.384484
97.2  33.253339
97.1  42.326955
97  48.499219