# Region:            Si2p (47)
# Acquisition Date:  11/09/19 02:54:16 UTC
# Analysis Method:   XPS
# Analyzer:          Phoibos
# Analyzer Lens:     MediumArea:1.5kV
# Analyzer Slit:     4:3x20\B:open
# Scan Mode:         FixedAnalyzerTransmission
# Curves/Scan:       1
# Values/Curve:      171
# Dwell Time:        0.1
# Excitation Energy: 1486.71
# Binding Energy:    114
# Pass Energy:       10
# Bias Voltage:      90
# Detector Voltage:  1900
# Eff. Workfunction: 4.395
# Source:            Focus
# Comment:           45 grados
#
# Cycle: 0
# Number of Scans: 15
#
# Cycle: 0, Curve: 0
# Acquisition Date: 11/09/19 02:54:16 UTC
#
# ColumnLabels: energy counts/s
#
114  164.80697
113.9  157.97744
113.8  167.98468
113.7  166.5957
113.6  174.72546
113.5  159.18724
113.4  163.60127
113.3  136.39972
113.2  138.97237
113.1  153.86228
113  151.22556
112.9  143.99165
112.8  163.02818
112.7  160.78482
112.6  153.70414
112.5  151.74908
112.4  153.25316
112.3  154.91027
112.2  150.13814
112.1  148.5901
112  142.37651
111.9  138.25513
111.8  141.27682
111.7  132.98559
111.6  131.19379
111.5  127.80456
111.4  131.96781
111.3  141.48093
111.2  145.69466
111.1  125.72154
111  120.42463
110.9  119.86323
110.8  132.60913
110.7  137.10105
110.6  124.2657
110.5  131.89352
110.4  116.05674
110.3  119.85155
110.2  127.13112
110.1  136.74697
110  137.72325
109.9  125.53295
109.8  119.27179
109.7  121.24995
109.6  126.94974
109.5  125.80839
109.4  125.83224
109.3  101.14649
109.2  112.71375
109.1  113.20116
109  122.75623
108.9  121.59727
108.8  115.35443
108.7  123.5713
108.6  127.28056
108.5  114.28188
108.4  109.65059
108.3  115.62731
108.2  118.46013
108.1  103.01917
108  113.37673
107.9  119.34331
107.8  115.69315
107.7  112.11463
107.6  113.27923
107.5  106.25564
107.4  109.22978
107.3  113.70035
107.2  106.71864
107.1  114.00901
107  106.85484
106.9  110.61159
106.8  101.71153
106.7  105.72451
106.6  110.97758
106.5  102.50205
106.4  103.99402
106.3  103.03276
106.2  95.808277
106.1  113.26261
106  110.99743
105.9  119.81552
105.8  114.12215
105.7  115.73975
105.6  117.74012
105.5  105.34376
105.4  113.48757
105.3  122.45234
105.2  104.10335
105.1  133.11833
105  130.05644
104.9  139.71256
104.8  136.63605
104.7  149.25897
104.6  171.97887
104.5  199.42129
104.4  209.29153
104.3  218.84654
104.2  236.54127
104.1  255.00048
104  246.88695
103.9  281.99938
103.8  301.23034
103.7  342.21336
103.6  328.08018
103.5  330.02901
103.4  383.90539
103.3  395.09093
103.2  424.99737
103.1  395.70955
103  404.36502
102.9  425.94704
102.8  438.61572
102.7  410.18591
102.6  428.79469
102.5  446.64282
102.4  440.99345
102.3  425.44065
102.2  415.06239
102.1  392.08109
102  441.25658
101.9  435.43785
101.8  402.11803
101.7  389.2606
101.6  397.3483
101.5  401.5834
101.4  385.04917
101.3  365.36434
101.2  382.37314
101.1  386.46684
101  384.58056
100.9  404.76662
100.8  401.14082
100.7  402.48448
100.6  432.89652
100.5  498.69884
100.4  501.94251
100.3  599.22521
100.2  646.54527
100.1  697.63582
100  741.90772
99.9  772.81459
99.8  767.42354
99.7  812.2601
99.6  833.4812
99.5  838.10419
99.4  847.17866
99.3  822.70299
99.2  753.54276
99.1  623.00705
99  516.47332
98.9  357.65811
98.8  252.83659
98.7  162.48921
98.6  106.17297
98.5  75.014954
98.4  59.697331
98.3  47.993282
98.2  39.982232
98.1  45.563551
98  43.335751
97.9  45.620921
97.8  43.792292
97.7  39.220763
97.6  39.162659
97.5  36.37929
97.4  40.986055
97.3  30.247809
97.2  35.421855
97.1  30.929241
97  29.476908