# Region:            O1s (43)
# Acquisition Date:  11/09/19 02:12:32 UTC
# Analysis Method:   XPS
# Analyzer:          Phoibos
# Analyzer Lens:     MediumArea:1.5kV
# Analyzer Slit:     4:3x20\B:open
# Scan Mode:         FixedAnalyzerTransmission
# Curves/Scan:       1
# Values/Curve:      211
# Dwell Time:        0.1
# Excitation Energy: 1486.71
# Binding Energy:    541
# Pass Energy:       10
# Bias Voltage:      90
# Detector Voltage:  1900
# Eff. Workfunction: 4.395
# Source:            Focus
# Comment:           5 grados
#
# Cycle: 0
# Number of Scans: 8
#
# Cycle: 0, Curve: 0
# Acquisition Date: 11/09/19 02:12:32 UTC
#
# ColumnLabels: energy counts/s
#
541  628.95209
540.9  632.73862
540.8  691.68616
540.7  669.48966
540.6  651.05238
540.5  662.13065
540.4  680.85426
540.3  675.47947
540.2  654.88205
540.1  645.42609
540  685.30219
539.9  631.61865
539.8  622.20362
539.7  648.44498
539.6  694.92253
539.5  687.44895
539.4  691.84555
539.3  670.56599
539.2  658.91481
539.1  640.76258
539  647.976
538.9  657.22526
538.8  648.66964
538.7  640.19561
538.6  643.41889
538.5  622.94563
538.4  669.40518
538.3  656.43581
538.2  658.61782
538.1  649.74575
538  648.62338
537.9  687.38613
537.8  670.92403
537.7  679.92982
537.6  680.51765
537.5  679.39427
537.4  624.78418
537.3  619.10574
537.2  617.59092
537.1  674.82858
537  686.001
536.9  640.45207
536.8  589.70274
536.7  673.86515
536.6  624.35425
536.5  679.42591
536.4  644.72788
536.3  635.52204
536.2  612.92109
536.1  626.01406
536  604.91007
535.9  626.70916
535.8  640.72365
535.7  625.64374
535.6  636.70353
535.5  661.35737
535.4  632.16666
535.3  636.30565
535.2  665.01477
535.1  710.92317
535  693.43664
534.9  675.40949
534.8  694.68477
534.7  754.54058
534.6  791.8385
534.5  874.6635
534.4  1006.8467
534.3  1063.1826
534.2  1166.7564
534.1  1348.7773
534  1457.3533
533.9  1735.1024
533.8  2029.493
533.7  2233.7794
533.6  2528.3782
533.5  2889.1309
533.4  3203.8953
533.3  3646.6221
533.2  4083.0705
533.1  4399.6213
533  4633.504
532.9  5012.8601
532.8  5184.3201
532.7  5257.8789
532.6  5357.4585
532.5  5206.3063
532.4  5177.2724
532.3  5034.4657
532.2  4914.2987
532.1  4530.364
532  4275.0827
531.9  3937.9961
531.8  3582.3179
531.7  3166.4047
531.6  2903.0068
531.5  2523.8092
531.4  2106.4265
531.3  1812.7505
531.2  1601.6373
531.1  1323.4546
531  1169.3914
530.9  981.3938
530.8  854.89768
530.7  796.65212
530.6  718.93177
530.5  705.69047
530.4  666.65129
530.3  647.3154
530.2  599.76995
530.1  602.85952
530  576.9609
529.9  561.43629
529.8  537.76013
529.7  579.95821
529.6  518.90157
529.5  548.67047
529.4  550.43019
529.3  531.75624
529.2  538.20958
529.1  499.44753
529  536.65167
528.9  545.96423
528.8  493.78278
528.7  522.5551
528.6  516.42883
528.5  555.49792
528.4  522.5112
528.3  521.67838
528.2  471.80405
528.1  457.36536
528  488.98989
527.9  494.60368
527.8  508.10497
527.7  531.35623
527.6  518.28193
527.5  512.03307
527.4  499.25298
527.3  489.51733
527.2  497.55817
527.1  465.50023
527  492.48411
526.9  536.73737
526.8  493.24622
526.7  511.15814
526.6  490.10692
526.5  458.09767
526.4  487.74115
526.3  508.2976
526.2  498.82799
526.1  491.312
526  476.13684
525.9  461.70078
525.8  470.01382
525.7  487.15816
525.6  506.33376
525.5  488.59581
525.4  490.48977
525.3  495.56402
525.2  486.74419
525.1  503.3394
525  547.92114
524.9  508.85075
524.8  485.3639
524.7  516.47152
524.6  506.01848
524.5  482.31681
524.4  482.4826
524.3  508.20608
524.2  480.00147
524.1  529.78491
524  482.67874
523.9  503.37152
523.8  479.37689
523.7  489.80355
523.6  514.61016
523.5  507.91921
523.4  486.53186
523.3  501.39913
523.2  515.55615
523.1  519.48975
523  478.7679
522.9  468.41075
522.8  492.95214
522.7  490.67854
522.6  469.41886
522.5  445.37643
522.4  502.93395
522.3  518.4163
522.2  512.35689
522.1  513.48985
522  496.68724
521.9  479.08475
521.8  469.53525
521.7  458.49661
521.6  484.1715
521.5  481.36234
521.4  506.74153
521.3  522.17337
521.2  547.20361
521.1  484.04487
521  488.28831
520.9  494.45911
520.8  465.80705
520.7  473.68291
520.6  486.14559
520.5  475.59602
520.4  496.05274
520.3  467.38827
520.2  452.78885
520.1  504.52743
520  480.15229