# Region:            Si2p (20)
# Acquisition Date:  11/08/19 17:44:11 UTC
# Analysis Method:   XPS
# Analyzer:          Phoibos
# Analyzer Lens:     MediumArea:1.5kV
# Analyzer Slit:     4:3x20\B:open
# Scan Mode:         FixedAnalyzerTransmission
# Curves/Scan:       1
# Values/Curve:      171
# Dwell Time:        0.1
# Excitation Energy: 1486.71
# Binding Energy:    114
# Pass Energy:       10
# Bias Voltage:      90
# Detector Voltage:  1900
# Eff. Workfunction: 4.395
# Source:            Focus
# Comment:           
#
# Cycle: 0
# Number of Scans: 15
#
# Cycle: 0, Curve: 0
# Acquisition Date: 11/08/19 17:44:11 UTC
#
# ColumnLabels: energy counts/s
#
114  92.282231
113.9  94.971691
113.8  79.269988
113.7  91.123681
113.6  76.713251
113.5  78.379154
113.4  85.057868
113.3  97.713809
113.2  90.962607
113.1  89.781481
113  102.31374
112.9  86.626558
112.8  87.687813
112.7  94.890873
112.6  90.154505
112.5  81.822369
112.4  78.738527
112.3  80.488468
112.2  87.531759
112.1  88.67313
112  90.7913
111.9  76.097055
111.8  78.943823
111.7  74.420061
111.6  90.85849
111.5  77.613804
111.4  78.28055
111.3  67.306152
111.2  76.063483
111.1  95.579948
111  72.133839
110.9  67.116958
110.8  70.050101
110.7  79.502331
110.6  83.778447
110.5  79.539751
110.4  78.451552
110.3  71.639737
110.2  67.694386
110.1  64.733345
110  71.848808
109.9  74.62409
109.8  85.054136
109.7  71.864916
109.6  70.269251
109.5  65.435192
109.4  65.761456
109.3  66.155467
109.2  61.629208
109.1  63.432326
109  70.393906
108.9  60.396713
108.8  62.318517
108.7  70.08706
108.6  70.607176
108.5  73.65548
108.4  77.98026
108.3  71.832744
108.2  60.046554
108.1  62.654797
108  67.859238
107.9  70.862165
107.8  66.76724
107.7  70.561119
107.6  73.77789
107.5  68.416968
107.4  69.400528
107.3  78.111206
107.2  93.598654
107.1  95.685997
107  94.402514
106.9  116.51632
106.8  134.6967
106.7  165.70878
106.6  199.88639
106.5  239.73954
106.4  283.03786
106.3  340.09061
106.2  410.28181
106.1  483.78727
106  578.64336
105.9  677.82561
105.8  749.78877
105.7  876.78407
105.6  966.40245
105.5  1099.3953
105.4  1179.8682
105.3  1296.6498
105.2  1393.8776
105.1  1442.9348
105  1485.2116
104.9  1544.5135
104.8  1572.2373
104.7  1566.8057
104.6  1497.7347
104.5  1485.7617
104.4  1435.3842
104.3  1374.2606
104.2  1227.1138
104.1  1148.8765
104  1019.0589
103.9  934.19673
103.8  794.97198
103.7  686.57036
103.6  607.54919
103.5  539.7849
103.4  483.59274
103.3  397.24978
103.2  323.44656
103.1  304.03134
103  278.18389
102.9  225.0227
102.8  185.88362
102.7  164.34006
102.6  150.75781
102.5  130.82427
102.4  124.41335
102.3  104.2838
102.2  91.233216
102.1  97.539046
102  96.330511
101.9  86.227456
101.8  81.136356
101.7  84.045962
101.6  87.88543
101.5  73.424042
101.4  67.647486
101.3  68.563859
101.2  57.747281
101.1  59.054226
101  64.283194
100.9  67.356921
100.8  64.020351
100.7  66.715758
100.6  69.930655
100.5  74.962191
100.4  90.401665
100.3  98.437265
100.2  113.56545
100.1  118.93435
100  126.13338
99.9  133.5117
99.8  124.58496
99.7  125.00364
99.6  148.88937
99.5  171.04847
99.4  180.49877
99.3  154.62084
99.2  112.5009
99.1  95.452354
99  79.26942
98.9  66.393211
98.8  53.636221
98.7  49.057499
98.6  48.152723
98.5  61.840142
98.4  51.118399
98.3  45.512612
98.2  51.259472
98.1  45.382141
98  37.160395
97.9  39.33679
97.8  48.762281
97.7  43.948021
97.6  47.918894
97.5  40.393981
97.4  53.945473
97.3  56.876414
97.2  45.223441
97.1  44.512831
97  48.779717