# Region:            Si2p (56)
# Acquisition Date:  11/11/19 18:08:32 UTC
# Analysis Method:   XPS
# Analyzer:          Phoibos
# Analyzer Lens:     MediumArea:1.5kV
# Analyzer Slit:     4:3x20\B:open
# Scan Mode:         FixedAnalyzerTransmission
# Curves/Scan:       1
# Values/Curve:      171
# Dwell Time:        0.1
# Excitation Energy: 1486.71
# Binding Energy:    114
# Pass Energy:       10
# Bias Voltage:      90
# Detector Voltage:  1900
# Eff. Workfunction: 4.395
# Source:            Focus
# Comment:           
#
# Cycle: 0
# Number of Scans: 15
#
# Cycle: 0, Curve: 0
# Acquisition Date: 11/11/19 18:08:32 UTC
#
# ColumnLabels: energy counts/s
#
114  366.32075
113.9  337.88149
113.8  345.83707
113.7  340.49739
113.6  354.66225
113.5  338.40214
113.4  341.40041
113.3  325.41386
113.2  330.56164
113.1  313.40077
113  298.17996
112.9  319.73334
112.8  301.45168
112.7  322.4574
112.6  318.85097
112.5  314.63929
112.4  303.44848
112.3  280.12567
112.2  288.90116
112.1  301.78045
112  291.75395
111.9  270.23853
111.8  267.87218
111.7  267.02951
111.6  254.0691
111.5  265.77136
111.4  248.08665
111.3  261.09894
111.2  245.97466
111.1  255.65564
111  262.91089
110.9  265.60133
110.8  252.98332
110.7  262.04584
110.6  244.32472
110.5  225.23871
110.4  246.64133
110.3  236.64273
110.2  234.80419
110.1  229.33428
110  246.73481
109.9  244.94237
109.8  211.0856
109.7  207.72649
109.6  243.74197
109.5  220.46928
109.4  232.36739
109.3  210.99527
109.2  204.884
109.1  212.39384
109  204.84139
108.9  214.07588
108.8  218.43514
108.7  203.20711
108.6  216.07256
108.5  204.95513
108.4  222.89554
108.3  237.54348
108.2  217.11206
108.1  201.58728
108  196.024
107.9  206.15256
107.8  214.57874
107.7  204.56524
107.6  188.30777
107.5  195.83434
107.4  197.91533
107.3  208.4258
107.2  195.33183
107.1  212.80241
107  206.79906
106.9  198.17708
106.8  180.41227
106.7  194.53937
106.6  183.99624
106.5  185.90523
106.4  179.28634
106.3  175.31363
106.2  186.38336
106.1  187.667
106  188.65918
105.9  176.33684
105.8  186.31261
105.7  186.85195
105.6  185.64755
105.5  191.93172
105.4  182.7391
105.3  195.64571
105.2  183.10179
105.1  155.38736
105  183.92768
104.9  188.51432
104.8  186.87799
104.7  184.2364
104.6  195.94423
104.5  190.44647
104.4  178.84944
104.3  170.13236
104.2  180.5642
104.1  193.12692
104  186.90218
103.9  181.49834
103.8  196.75593
103.7  175.30266
103.6  177.69414
103.5  190.34947
103.4  179.43516
103.3  190.77467
103.2  191.05716
103.1  195.03151
103  204.76419
102.9  206.82864
102.8  207.99599
102.7  203.59641
102.6  209.49712
102.5  212.66733
102.4  222.98518
102.3  238.95452
102.2  233.70878
102.1  243.80963
102  252.84354
101.9  254.02553
101.8  255.92251
101.7  290.20689
101.6  288.27185
101.5  300.84044
101.4  339.20501
101.3  372.8115
101.2  380.08451
101.1  389.17613
101  419.56195
100.9  469.73015
100.8  509.52963
100.7  563.37311
100.6  602.05535
100.5  685.85027
100.4  779.35198
100.3  1056.2522
100.2  1289.889
100.1  1592.0143
100  1878.3845
99.9  2123.5189
99.8  2311.0934
99.7  2456.279
99.6  2627.2105
99.5  2767.1855
99.4  2958.059
99.3  3120.4633
99.2  3041.3207
99.1  2726.2779
99  2227.7786
98.9  1675.8313
98.8  1161.8936
98.7  727.12877
98.6  405.06112
98.5  247.93412
98.4  158.51599
98.3  112.30037
98.2  90.577871
98.1  76.833483
98  67.170614
97.9  60.00055
97.8  61.880309
97.7  47.48997
97.6  56.34874
97.5  56.41041
97.4  56.599866
97.3  52.323289
97.2  49.140726
97.1  44.73275
97  45.618532