# Region:            Si2p
# Acquisition Date:  11/07/19 16:27:33 UTC
# Analysis Method:   XPS
# Analyzer:          Phoibos
# Analyzer Lens:     MediumArea:1.5kV
# Analyzer Slit:     4:3x20\B:open
# Scan Mode:         FixedAnalyzerTransmission
# Curves/Scan:       1
# Values/Curve:      171
# Dwell Time:        0.1
# Excitation Energy: 1486.71
# Binding Energy:    114
# Pass Energy:       10
# Bias Voltage:      90
# Detector Voltage:  1900
# Eff. Workfunction: 4.395
# Source:            Focus
# Comment:           
#
# Cycle: 0
# Number of Scans: 15
#
# Cycle: 0, Curve: 0
# Acquisition Date: 11/07/19 16:27:33 UTC
#
# ColumnLabels: energy counts/s
#
114  68.528878
113.9  78.548653
113.8  89.471475
113.7  72.326964
113.6  81.871946
113.5  69.543622
113.4  65.560647
113.3  73.811382
113.2  67.860699
113.1  74.107419
113  79.230799
112.9  74.951032
112.8  74.975336
112.7  76.627528
112.6  62.142271
112.5  55.73405
112.4  56.870217
112.3  61.760913
112.2  58.928349
112.1  61.593229
112  67.420257
111.9  68.139812
111.8  63.159051
111.7  67.202608
111.6  67.894802
111.5  60.480775
111.4  67.060044
111.3  59.188633
111.2  59.250602
111.1  62.626575
111  55.958468
110.9  62.34154
110.8  71.812258
110.7  63.1361
110.6  67.671379
110.5  63.910061
110.4  62.262311
110.3  61.142602
110.2  63.354147
110.1  69.57982
110  56.454111
109.9  62.675464
109.8  55.838903
109.7  48.563792
109.6  52.384805
109.5  53.504155
109.4  46.282743
109.3  47.931118
109.2  54.285146
109.1  51.428883
109  56.875936
108.9  65.223258
108.8  59.168391
108.7  47.838836
108.6  46.85647
108.5  55.024971
108.4  60.407673
108.3  55.314623
108.2  47.933128
108.1  64.415786
108  58.9486
107.9  49.47244
107.8  64.416019
107.7  64.362035
107.6  67.397641
107.5  58.685096
107.4  49.080107
107.3  53.343133
107.2  61.46258
107.1  57.932164
107  56.342679
106.9  67.85807
106.8  66.528712
106.7  58.991429
106.6  73.831975
106.5  55.246835
106.4  67.325001
106.3  64.044393
106.2  74.540485
106.1  84.804218
106  100.30675
105.9  96.606021
105.8  110.62298
105.7  151.38621
105.6  197.35685
105.5  228.94146
105.4  282.74359
105.3  365.42323
105.2  463.31374
105.1  542.18591
105  693.16469
104.9  776.05726
104.8  886.20189
104.7  969.96286
104.6  1044.3684
104.5  1204.4512
104.4  1257.8891
104.3  1272.3524
104.2  1279.4063
104.1  1318.2616
104  1194.5452
103.9  1143.3385
103.8  1042.454
103.7  930.61369
103.6  821.18136
103.5  712.62625
103.4  622.16792
103.3  551.92306
103.2  522.42817
103.1  464.58927
103  438.45539
102.9  418.49896
102.8  421.43328
102.7  417.29492
102.6  397.91154
102.5  376.72487
102.4  352.9811
102.3  298.10427
102.2  262.41073
102.1  191.04604
102  161.46815
101.9  148.25968
101.8  110.34963
101.7  90.116464
101.6  82.197828
101.5  85.324549
101.4  80.224633
101.3  65.960672
101.2  60.498237
101.1  64.582162
101  60.001193
100.9  63.016327
100.8  61.631055
100.7  66.74185
100.6  73.471782
100.5  63.585323
100.4  56.838078
100.3  66.776861
100.2  65.747831
100.1  70.24549
100  67.953352
99.9  56.723942
99.8  67.650171
99.7  60.920253
99.6  66.282612
99.5  57.871012
99.4  56.305132
99.3  57.998442
99.2  58.396839
99.1  60.635481
99  54.783972
98.9  58.392141
98.8  60.3926
98.7  61.772128
98.6  53.818135
98.5  60.547937
98.4  52.472383
98.3  53.609236
98.2  48.522091
98.1  54.544412
98  62.943371
97.9  65.785506
97.8  58.347485
97.7  57.813427
97.6  56.874141
97.5  55.656056
97.4  52.767129
97.3  64.485288
97.2  50.331502
97.1  58.704875
97  61.013548