# Region:            O1s (28)
# Acquisition Date:  11/08/19 21:21:46 UTC
# Analysis Method:   XPS
# Analyzer:          Phoibos
# Analyzer Lens:     MediumArea:1.5kV
# Analyzer Slit:     4:3x20\B:open
# Scan Mode:         FixedAnalyzerTransmission
# Curves/Scan:       1
# Values/Curve:      211
# Dwell Time:        0.1
# Excitation Energy: 1486.71
# Binding Energy:    541
# Pass Energy:       10
# Bias Voltage:      90
# Detector Voltage:  1900
# Eff. Workfunction: 4.395
# Source:            Focus
# Comment:           
#
# Cycle: 0
# Number of Scans: 8
#
# Cycle: 0, Curve: 0
# Acquisition Date: 11/08/19 21:21:46 UTC
#
# ColumnLabels: energy counts/s
#
541  603.33364
540.9  681.5654
540.8  669.39446
540.7  605.79967
540.6  647.16185
540.5  624.42673
540.4  640.79032
540.3  648.89963
540.2  693.03728
540.1  658.04171
540  669.38474
539.9  624.86359
539.8  616.69618
539.7  613.81643
539.6  633.32003
539.5  611.82899
539.4  608.69303
539.3  647.68069
539.2  596.70362
539.1  593.74319
539  609.42697
538.9  622.99428
538.8  636.83662
538.7  605.27125
538.6  556.11802
538.5  578.1691
538.4  603.55593
538.3  600.41538
538.2  641.8312
538.1  589.74414
538  582.02299
537.9  577.81397
537.8  611.43597
537.7  621.95073
537.6  603.50349
537.5  565.97548
537.4  593.04242
537.3  622.3163
537.2  567.53089
537.1  564.15106
537  598.66966
536.9  591.41361
536.8  619.32727
536.7  607.0506
536.6  597.50838
536.5  575.32649
536.4  626.09884
536.3  627.26357
536.2  608.9253
536.1  655.09412
536  708.57394
535.9  719.77908
535.8  795.81611
535.7  801.69605
535.6  906.8793
535.5  1036.8861
535.4  1079.5078
535.3  1276.2644
535.2  1499.1105
535.1  1802.2455
535  2100.718
534.9  2365.1993
534.8  2927.3138
534.7  3617.2044
534.6  4153.3856
534.5  4818.1898
534.4  5664.7248
534.3  6496.9478
534.2  7335.4733
534.1  8219.1448
534  9200.1782
533.9  10031.571
533.8  10483.513
533.7  10729.73
533.6  11052.388
533.5  10955.886
533.4  10426.422
533.3  9716.6106
533.2  9126.6568
533.1  8345.6773
533  7297.8602
532.9  6431.896
532.8  5415.2855
532.7  4528.8474
532.6  3863.9315
532.5  3060.5345
532.4  2525.4101
532.3  2088.284
532.2  1759.0597
532.1  1515.1454
532  1328.1875
531.9  1175.6799
531.8  1085.3462
531.7  969.24591
531.6  873.53502
531.5  814.94876
531.4  811.00527
531.3  751.53795
531.2  707.41595
531.1  695.9286
531  666.06106
530.9  588.72039
530.8  612.4946
530.7  591.50722
530.6  586.91628
530.5  577.09879
530.4  573.94279
530.3  558.153
530.2  556.63171
530.1  510.75037
530  542.22197
529.9  566.92287
529.8  529.40629
529.7  486.35658
529.6  464.39443
529.5  504.3303
529.4  471.48101
529.3  483.7007
529.2  507.11306
529.1  473.23074
529  474.66498
528.9  462.15166
528.8  470.27615
528.7  479.67185
528.6  445.32139
528.5  488.14209
528.4  465.10768
528.3  469.69512
528.2  438.51289
528.1  467.21087
528  436.29656
527.9  513.71516
527.8  488.50155
527.7  482.28694
527.6  479.37708
527.5  439.89775
527.4  454.24469
527.3  441.64135
527.2  457.68694
527.1  490.97849
527  498.73494
526.9  471.47091
526.8  435.81105
526.7  479.19336
526.6  483.41328
526.5  499.58652
526.4  471.77144
526.3  476.54016
526.2  455.81807
526.1  437.63733
526  472.3143
525.9  469.12591
525.8  462.02609
525.7  443.22908
525.6  484.00367
525.5  465.05189
525.4  483.19642
525.3  497.15749
525.2  485.68753
525.1  453.88415
525  480.55975
524.9  477.80911
524.8  499.16921
524.7  467.04205
524.6  444.4679
524.5  436.70402
524.4  452.76651
524.3  451.65378
524.2  458.11483
524.1  487.16179
524  466.50243
523.9  463.24064
523.8  449.14737
523.7  460.48153
523.6  484.77584
523.5  452.36747
523.4  446.07152
523.3  441.77069
523.2  467.08099
523.1  478.15901
523  444.11268
522.9  481.87772
522.8  476.43438
522.7  460.91457
522.6  444.77828
522.5  466.28206
522.4  466.49386
522.3  452.90914
522.2  448.80789
522.1  490.52352
522  469.70652
521.9  431.62499
521.8  479.47811
521.7  475.74253
521.6  459.87516
521.5  466.88656
521.4  489.31317
521.3  462.32869
521.2  486.2475
521.1  448.94972
521  486.6347
520.9  440.36514
520.8  465.59703
520.7  440.14339
520.6  408.08754
520.5  435.15659
520.4  472.59136
520.3  455.87236
520.2  453.83031
520.1  436.96329
520  459.42167