# Region:            O1s (39)
# Acquisition Date:  11/09/19 00:47:24 UTC
# Analysis Method:   XPS
# Analyzer:          Phoibos
# Analyzer Lens:     MediumArea:1.5kV
# Analyzer Slit:     4:3x20\B:open
# Scan Mode:         FixedAnalyzerTransmission
# Curves/Scan:       1
# Values/Curve:      211
# Dwell Time:        0.1
# Excitation Energy: 1486.71
# Binding Energy:    541
# Pass Energy:       10
# Bias Voltage:      90
# Detector Voltage:  1900
# Eff. Workfunction: 4.395
# Source:            Focus
# Comment:           35 grados
#
# Cycle: 0
# Number of Scans: 8
#
# Cycle: 0, Curve: 0
# Acquisition Date: 11/09/19 00:47:24 UTC
#
# ColumnLabels: energy counts/s
#
541  438.80939
540.9  486.4605
540.8  460.69565
540.7  479.29829
540.6  455.70244
540.5  456.9724
540.4  461.42946
540.3  457.60662
540.2  471.61811
540.1  482.20053
540  489.43044
539.9  460.85513
539.8  462.73153
539.7  488.1853
539.6  486.79328
539.5  441.45091
539.4  464.96082
539.3  430.33316
539.2  452.6276
539.1  437.82672
539  443.30463
538.9  510.31469
538.8  468.3785
538.7  490.54536
538.6  500.91277
538.5  460.17458
538.4  448.07021
538.3  420.18262
538.2  442.62901
538.1  454.60787
538  434.23361
537.9  459.27991
537.8  443.84025
537.7  438.10927
537.6  436.99843
537.5  450.92189
537.4  433.22488
537.3  428.48692
537.2  425.45441
537.1  428.85004
537  482.18879
536.9  459.77656
536.8  485.44389
536.7  432.21697
536.6  491.03926
536.5  471.64201
536.4  434.58346
536.3  435.30502
536.2  412.34379
536.1  431.28473
536  476.06569
535.9  426.72708
535.8  455.03438
535.7  443.64803
535.6  447.6699
535.5  473.10759
535.4  497.59641
535.3  516.30837
535.2  524.75712
535.1  481.89416
535  583.0323
534.9  657.70397
534.8  720.122
534.7  830.85264
534.6  865.58104
534.5  995.75855
534.4  1181.8742
534.3  1353.227
534.2  1649.8157
534.1  1921.7786
534  2276.3315
533.9  2668.0512
533.8  3044.909
533.7  3473.3051
533.6  3903.2642
533.5  4325.3369
533.4  4821.735
533.3  5148.2509
533.2  5401.4927
533.1  5655.2178
533  5584.8767
532.9  5415.8844
532.8  5170.6427
532.7  5058.6712
532.6  4804.2847
532.5  4445.7587
532.4  3969.9909
532.3  3564.9404
532.2  3028.4775
532.1  2632.1453
532  2200.6469
531.9  1909.6904
531.8  1668.7214
531.7  1446.9842
531.6  1231.6156
531.5  1055.0171
531.4  913.65915
531.3  793.748
531.2  757.35719
531.1  642.53834
531  537.01891
530.9  481.36108
530.8  470.73204
530.7  433.98733
530.6  414.06962
530.5  409.46631
530.4  423.13673
530.3  386.69784
530.2  395.07027
530.1  367.14316
530  371.19101
529.9  390.89375
529.8  413.4463
529.7  383.88473
529.6  357.8016
529.5  344.83662
529.4  346.03345
529.3  340.54762
529.2  358.20103
529.1  392.36206
529  380.07736
528.9  340.60945
528.8  326.71296
528.7  330.39371
528.6  364.49514
528.5  367.80326
528.4  367.06494
528.3  324.24161
528.2  368.63836
528.1  361.51118
528  332.1746
527.9  329.96503
527.8  375.99993
527.7  332.77033
527.6  343.02598
527.5  325.79953
527.4  370.88317
527.3  344.47924
527.2  348.38305
527.1  344.7516
527  334.8298
526.9  323.63037
526.8  286.4458
526.7  299.2342
526.6  316.51469
526.5  313.59016
526.4  335.56385
526.3  357.58913
526.2  324.47598
526.1  332.45351
526  323.11314
525.9  340.43667
525.8  351.84074
525.7  314.26274
525.6  336.58505
525.5  317.37989
525.4  329.83793
525.3  347.8046
525.2  331.63828
525.1  339.43246
525  319.21955
524.9  339.68398
524.8  325.48928
524.7  326.29796
524.6  307.73936
524.5  334.38788
524.4  305.35567
524.3  302.0205
524.2  334.38844
524.1  345.08628
524  323.18692
523.9  346.41761
523.8  329.88369
523.7  299.92034
523.6  342.4228
523.5  326.80632
523.4  332.53796
523.3  327.06744
523.2  319.966
523.1  318.34883
523  330.09771
522.9  324.968
522.8  323.55395
522.7  309.78341
522.6  301.94215
522.5  291.83631
522.4  299.54816
522.3  315.15472
522.2  307.91828
522.1  325.6919
522  347.96169
521.9  307.59124
521.8  309.7909
521.7  344.64886
521.6  360.16178
521.5  338.01863
521.4  324.84133
521.3  322.44589
521.2  306.17824
521.1  316.5748
521  338.08667
520.9  317.70534
520.8  288.97055
520.7  317.08078
520.6  325.29686
520.5  356.22301
520.4  317.98053
520.3  290.37888
520.2  271.40027
520.1  307.08252
520  298.54935