# Region:            Si2p (41)
# Acquisition Date:  11/09/19 01:12:36 UTC
# Analysis Method:   XPS
# Analyzer:          Phoibos
# Analyzer Lens:     MediumArea:1.5kV
# Analyzer Slit:     4:3x20\B:open
# Scan Mode:         FixedAnalyzerTransmission
# Curves/Scan:       1
# Values/Curve:      171
# Dwell Time:        0.1
# Excitation Energy: 1486.71
# Binding Energy:    114
# Pass Energy:       10
# Bias Voltage:      90
# Detector Voltage:  1900
# Eff. Workfunction: 4.395
# Source:            Focus
# Comment:           55 grados
#
# Cycle: 0
# Number of Scans: 15
#
# Cycle: 0, Curve: 0
# Acquisition Date: 11/09/19 01:12:36 UTC
#
# ColumnLabels: energy counts/s
#
114  94.781951
113.9  103.93124
113.8  93.666062
113.7  90.22921
113.6  83.399573
113.5  87.131512
113.4  98.773702
113.3  92.419262
113.2  91.413129
113.1  98.809578
113  99.004649
112.9  88.572694
112.8  91.067727
112.7  89.50093
112.6  85.836587
112.5  84.425573
112.4  74.888944
112.3  86.434756
112.2  95.840813
112.1  87.099235
112  87.196696
111.9  85.991205
111.8  88.622322
111.7  81.257568
111.6  85.635972
111.5  81.241226
111.4  77.399707
111.3  75.235597
111.2  92.662533
111.1  88.249919
111  72.065269
110.9  85.552319
110.8  85.919495
110.7  80.371734
110.6  72.911875
110.5  81.309776
110.4  80.428861
110.3  84.065463
110.2  76.141631
110.1  84.808325
110  76.61317
109.9  72.051356
109.8  71.839741
109.7  69.879782
109.6  77.899757
109.5  69.807588
109.4  68.075982
109.3  76.515201
109.2  72.71826
109.1  71.355439
109  65.331124
108.9  58.521383
108.8  62.048832
108.7  70.828125
108.6  71.388789
108.5  75.524143
108.4  77.272949
108.3  70.964541
108.2  71.277163
108.1  65.630317
108  67.976394
107.9  65.733116
107.8  68.080835
107.7  62.132905
107.6  56.492543
107.5  67.589927
107.4  52.651807
107.3  58.144335
107.2  64.245129
107.1  66.131353
107  68.187587
106.9  61.46286
106.8  61.759179
106.7  60.383775
106.6  66.384303
106.5  57.062902
106.4  53.726068
106.3  65.503917
106.2  58.917552
106.1  62.34505
106  64.091008
105.9  68.447195
105.8  81.298645
105.7  81.407455
105.6  79.014622
105.5  97.371434
105.4  106.18401
105.3  109.63474
105.2  136.96376
105.1  163.47988
105  183.82912
104.9  219.03692
104.8  255.48434
104.7  274.79956
104.6  350.48174
104.5  382.54355
104.4  427.07276
104.3  462.72645
104.2  491.875
104.1  520.4403
104  586.66994
103.9  646.45115
103.8  637.17932
103.7  660.42902
103.6  643.23319
103.5  672.92438
103.4  631.27965
103.3  624.43249
103.2  610.49358
103.1  608.74244
103  567.93997
102.9  554.81959
102.8  494.5606
102.7  511.65827
102.6  467.42621
102.5  421.09944
102.4  386.82737
102.3  376.29107
102.2  360.56254
102.1  338.6771
102  323.24762
101.9  279.05345
101.8  256.02431
101.7  243.84756
101.6  218.8975
101.5  223.94642
101.4  218.615
101.3  188.0956
101.2  203.80443
101.1  197.86835
101  183.21541
100.9  176.06254
100.8  170.70487
100.7  165.66688
100.6  183.3191
100.5  183.0913
100.4  172.53218
100.3  182.07871
100.2  198.01927
100.1  210.0863
100  229.53601
99.9  238.82246
99.8  253.62321
99.7  244.23605
99.6  243.3707
99.5  233.3994
99.4  191.42527
99.3  201.87127
99.2  196.41037
99.1  170.44397
99  122.57515
98.9  91.262647
98.8  74.405808
98.7  60.246112
98.6  43.91092
98.5  43.07133
98.4  34.419428
98.3  35.171313
98.2  35.45132
98.1  37.391662
98  36.013729
97.9  27.507902
97.8  33.538274
97.7  27.040936
97.6  28.586197
97.5  34.079461
97.4  36.610945
97.3  25.332884
97.2  25.773888
97.1  27.641321
97  23.952759