# Region:            Si2p (38)
# Acquisition Date:  11/09/19 00:29:32 UTC
# Analysis Method:   XPS
# Analyzer:          Phoibos
# Analyzer Lens:     MediumArea:1.5kV
# Analyzer Slit:     4:3x20\B:open
# Scan Mode:         FixedAnalyzerTransmission
# Curves/Scan:       1
# Values/Curve:      171
# Dwell Time:        0.1
# Excitation Energy: 1486.71
# Binding Energy:    114
# Pass Energy:       10
# Bias Voltage:      90
# Detector Voltage:  1900
# Eff. Workfunction: 4.395
# Source:            Focus
# Comment:           25 grados
#
# Cycle: 0
# Number of Scans: 15
#
# Cycle: 0, Curve: 0
# Acquisition Date: 11/09/19 00:29:32 UTC
#
# ColumnLabels: energy counts/s
#
114  141.98934
113.9  156.84743
113.8  163.22054
113.7  161.66453
113.6  142.73919
113.5  153.97163
113.4  146.53876
113.3  129.09339
113.2  162.66593
113.1  144.15263
113  140.13077
112.9  149.85059
112.8  120.13645
112.7  129.06132
112.6  135.01534
112.5  142.71631
112.4  129.04589
112.3  142.72965
112.2  136.78243
112.1  122.99152
112  129.59103
111.9  128.13103
111.8  124.68011
111.7  137.04517
111.6  134.97737
111.5  123.99562
111.4  135.55578
111.3  130.3738
111.2  129.55112
111.1  120.31911
111  113.93379
110.9  129.321
110.8  124.08151
110.7  109.79695
110.6  120.78766
110.5  138.87785
110.4  119.89925
110.3  114.43848
110.2  107.11231
110.1  119.47633
110  131.31032
109.9  118.1723
109.8  116.62431
109.7  116.47898
109.6  110.11537
109.5  112.94789
109.4  100.15736
109.3  108.50755
109.2  107.40701
109.1  109.86578
109  112.51464
108.9  100.70314
108.8  107.59649
108.7  88.665921
108.6  102.24755
108.5  107.18525
108.4  96.223767
108.3  98.772893
108.2  97.896894
108.1  88.438986
108  118.10779
107.9  115.27869
107.8  101.94272
107.7  101.57572
107.6  99.103828
107.5  99.221417
107.4  110.22375
107.3  87.654022
107.2  93.698757
107.1  101.51826
107  99.653394
106.9  100.96519
106.8  101.34187
106.7  106.00705
106.6  96.884053
106.5  87.555973
106.4  101.37032
106.3  99.933217
106.2  94.551869
106.1  104.79821
106  118.54389
105.9  112.77407
105.8  114.98104
105.7  115.21505
105.6  128.34488
105.5  134.32593
105.4  143.95787
105.3  180.9994
105.2  192.28473
105.1  244.68951
105  267.39529
104.9  305.05146
104.8  357.81139
104.7  395.74035
104.6  427.07278
104.5  464.56522
104.4  522.82328
104.3  599.29048
104.2  660.45308
104.1  682.50444
104  718.66908
103.9  768.76355
103.8  797.13653
103.7  798.46289
103.6  818.25383
103.5  796.27702
103.4  787.98894
103.3  767.89191
103.2  758.94837
103.1  768.00317
103  737.03193
102.9  698.01401
102.8  669.38345
102.7  626.0629
102.6  578.28451
102.5  597.72936
102.4  559.38441
102.3  552.16071
102.2  482.8414
102.1  449.05255
102  413.08175
101.9  434.28516
101.8  405.46588
101.7  362.69303
101.6  348.58463
101.5  345.24015
101.4  312.57053
101.3  310.72312
101.2  298.88344
101.1  291.99762
101  278.09072
100.9  287.92494
100.8  287.97126
100.7  289.17095
100.6  319.56456
100.5  325.68185
100.4  333.77118
100.3  377.48641
100.2  412.61216
100.1  463.46575
100  488.15114
99.9  495.85206
99.8  524.34012
99.7  532.64802
99.6  571.54875
99.5  593.66528
99.4  592.97445
99.3  578.78043
99.2  515.36048
99.1  413.86239
99  307.35548
98.9  217.72721
98.8  139.44586
98.7  111.60898
98.6  80.052432
98.5  62.848411
98.4  56.297222
98.3  47.244621
98.2  42.219397
98.1  46.430471
98  47.012857
97.9  39.971975
97.8  38.171965
97.7  33.111783
97.6  33.633747
97.5  34.076786
97.4  37.512277
97.3  35.930865
97.2  38.991857
97.1  40.982295
97  48.531942