# Region:            Si2p (58)
# Acquisition Date:  11/11/19 18:47:46 UTC
# Analysis Method:   XPS
# Analyzer:          Phoibos
# Analyzer Lens:     MediumArea:1.5kV
# Analyzer Slit:     4:3x20\B:open
# Scan Mode:         FixedAnalyzerTransmission
# Curves/Scan:       1
# Values/Curve:      171
# Dwell Time:        0.1
# Excitation Energy: 1486.71
# Binding Energy:    114
# Pass Energy:       10
# Bias Voltage:      90
# Detector Voltage:  1900
# Eff. Workfunction: 4.395
# Source:            Focus
# Comment:           15 grados
#
# Cycle: 0
# Number of Scans: 15
#
# Cycle: 0, Curve: 0
# Acquisition Date: 11/11/19 18:47:46 UTC
#
# ColumnLabels: energy counts/s
#
114  330.17175
113.9  319.31651
113.8  327.55315
113.7  318.50365
113.6  269.61247
113.5  293.99945
113.4  306.33449
113.3  295.10087
113.2  293.46922
113.1  288.73698
113  260.68802
112.9  274.57164
112.8  261.34993
112.7  254.63717
112.6  253.75821
112.5  262.79558
112.4  246.69054
112.3  262.55424
112.2  242.94461
112.1  237.53147
112  242.35314
111.9  255.79337
111.8  232.70652
111.7  238.05153
111.6  240.82735
111.5  232.99022
111.4  244.99011
111.3  242.84268
111.2  215.04305
111.1  214.22662
111  222.72654
110.9  204.62836
110.8  223.8679
110.7  225.31497
110.6  218.08604
110.5  232.07896
110.4  226.22501
110.3  220.48036
110.2  213.47002
110.1  218.76542
110  201.10331
109.9  197.81046
109.8  217.2414
109.7  199.95268
109.6  191.02942
109.5  164.00627
109.4  181.11478
109.3  173.97099
109.2  198.5241
109.1  200.07927
109  194.29514
108.9  184.98666
108.8  185.09811
108.7  173.05014
108.6  186.80726
108.5  197.12936
108.4  192.80153
108.3  180.4427
108.2  187.97172
108.1  178.37278
108  182.76517
107.9  171.42492
107.8  164.33172
107.7  176.54557
107.6  183.19034
107.5  197.5714
107.4  192.12563
107.3  183.33589
107.2  164.7579
107.1  166.48866
107  169.17479
106.9  167.51357
106.8  175.00416
106.7  178.68714
106.6  180.97346
106.5  179.99682
106.4  182.52526
106.3  168.06757
106.2  161.54828
106.1  156.48374
106  172.37109
105.9  153.02993
105.8  162.76758
105.7  151.26607
105.6  164.10109
105.5  159.57495
105.4  147.08464
105.3  159.1371
105.2  163.60219
105.1  168.46006
105  171.43623
104.9  165.97529
104.8  159.528
104.7  156.53277
104.6  165.68803
104.5  156.81236
104.4  170.9712
104.3  163.91647
104.2  155.78146
104.1  174.43437
104  172.97916
103.9  170.69426
103.8  178.284
103.7  183.72506
103.6  179.42883
103.5  182.53248
103.4  182.61403
103.3  210.74206
103.2  193.38035
103.1  198.49412
103  212.94471
102.9  204.39063
102.8  207.00086
102.7  196.35283
102.6  225.59683
102.5  214.14639
102.4  225.41755
102.3  226.49685
102.2  240.83093
102.1  251.40021
102  247.04155
101.9  270.51198
101.8  264.78366
101.7  300.38613
101.6  311.92487
101.5  344.26193
101.4  329.65518
101.3  346.70083
101.2  377.83139
101.1  421.62173
101  424.6974
100.9  466.09834
100.8  507.72033
100.7  592.91702
100.6  611.84772
100.5  692.66554
100.4  776.37541
100.3  929.00047
100.2  1173.1774
100.1  1403.3232
100  1657.3543
99.9  1863.7381
99.8  1961.473
99.7  2068.315
99.6  2190.2141
99.5  2394.8655
99.4  2533.9213
99.3  2562.2818
99.2  2507.5883
99.1  2225.763
99  1827.3991
98.9  1321.8655
98.8  872.55736
98.7  556.51943
98.6  333.55896
98.5  205.23309
98.4  130.88067
98.3  94.137447
98.2  76.87172
98.1  68.374341
98  51.039616
97.9  56.345013
97.8  53.926477
97.7  51.530627
97.6  54.756255
97.5  45.30398
97.4  53.329894
97.3  43.736354
97.2  36.818483
97.1  42.915767
97  43.383911