# Region:            Si2p (57)
# Acquisition Date:  11/11/19 18:25:24 UTC
# Analysis Method:   XPS
# Analyzer:          Phoibos
# Analyzer Lens:     MediumArea:1.5kV
# Analyzer Slit:     4:3x20\B:open
# Scan Mode:         FixedAnalyzerTransmission
# Curves/Scan:       1
# Values/Curve:      171
# Dwell Time:        0.1
# Excitation Energy: 1486.71
# Binding Energy:    114
# Pass Energy:       10
# Bias Voltage:      90
# Detector Voltage:  1900
# Eff. Workfunction: 4.395
# Source:            Focus
# Comment:           5 grados
#
# Cycle: 0
# Number of Scans: 15
#
# Cycle: 0, Curve: 0
# Acquisition Date: 11/11/19 18:25:24 UTC
#
# ColumnLabels: energy counts/s
#
114  331.54593
113.9  335.07039
113.8  319.02371
113.7  327.56939
113.6  326.5516
113.5  301.35568
113.4  317.80384
113.3  300.02721
113.2  289.5443
113.1  284.16651
113  279.94974
112.9  283.47034
112.8  280.68045
112.7  303.27436
112.6  284.22828
112.5  280.85
112.4  285.13023
112.3  294.69622
112.2  269.74714
112.1  234.21733
112  250.42378
111.9  268.67505
111.8  268.82768
111.7  251.95645
111.6  264.40207
111.5  256.49932
111.4  235.57744
111.3  225.02184
111.2  252.48473
111.1  244.07156
111  239.83827
110.9  242.80171
110.8  243.71856
110.7  235.94669
110.6  217.07704
110.5  228.75488
110.4  206.57115
110.3  209.43059
110.2  217.0031
110.1  217.62105
110  202.81801
109.9  206.15477
109.8  209.25824
109.7  221.16067
109.6  227.59481
109.5  230.29427
109.4  226.87409
109.3  202.79799
109.2  197.7322
109.1  197.60863
109  207.74861
108.9  216.19294
108.8  183.52071
108.7  191.9752
108.6  194.4647
108.5  188.60387
108.4  184.71043
108.3  189.52
108.2  188.88604
108.1  188.67066
108  189.5852
107.9  185.49636
107.8  184.02162
107.7  170.49383
107.6  203.92082
107.5  200.33369
107.4  190.41165
107.3  175.06282
107.2  173.47768
107.1  174.7375
107  177.1905
106.9  178.92246
106.8  177.89965
106.7  175.91967
106.6  174.09236
106.5  180.52374
106.4  176.14416
106.3  180.7323
106.2  185.88482
106.1  181.98041
106  182.84946
105.9  180.75846
105.8  175.80493
105.7  188.01386
105.6  186.35811
105.5  192.45526
105.4  165.94327
105.3  157.77518
105.2  163.61021
105.1  176.55973
105  181.3579
104.9  177.22396
104.8  184.13688
104.7  179.29966
104.6  173.48866
104.5  172.98604
104.4  181.5312
104.3  173.84476
104.2  174.92529
104.1  174.80918
104  187.26776
103.9  173.97636
103.8  169.39635
103.7  165.04305
103.6  155.22361
103.5  170.43515
103.4  180.96712
103.3  175.1084
103.2  195.15557
103.1  179.44375
103  193.17986
102.9  195.6477
102.8  208.06186
102.7  184.79255
102.6  191.40465
102.5  197.76917
102.4  212.39679
102.3  231.81049
102.2  224.41487
102.1  234.80093
102  235.23602
101.9  256.58696
101.8  243.53387
101.7  285.13105
101.6  292.68801
101.5  307.31507
101.4  303.9908
101.3  307.17524
101.2  368.71104
101.1  390.56361
101  442.8589
100.9  472.2634
100.8  507.21595
100.7  540.86829
100.6  600.99869
100.5  710.45489
100.4  821.4415
100.3  1002.3075
100.2  1239.4781
100.1  1537.2043
100  1749.8796
99.9  1957.852
99.8  2078.0066
99.7  2292.6705
99.6  2415.5932
99.5  2590.3386
99.4  2860.7321
99.3  2877.639
99.2  2763.4209
99.1  2381.7618
99  1906.7159
98.9  1405.8796
98.8  903.14086
98.7  557.87636
98.6  325.69753
98.5  197.26848
98.4  142.8184
98.3  104.76499
98.2  84.313311
98.1  67.341426
98  62.794979
97.9  65.914872
97.8  58.411768
97.7  53.283813
97.6  49.024072
97.5  48.330021
97.4  51.981201
97.3  48.104591
97.2  46.12952
97.1  41.842369
97  54.816875