# Region:            Si2p (49)
# Acquisition Date:  11/11/19 16:22:35 UTC
# Analysis Method:   XPS
# Analyzer:          Phoibos
# Analyzer Lens:     MediumArea:1.5kV
# Analyzer Slit:     4:3x20\B:open
# Scan Mode:         FixedAnalyzerTransmission
# Curves/Scan:       1
# Values/Curve:      171
# Dwell Time:        0.1
# Excitation Energy: 1486.71
# Binding Energy:    114
# Pass Energy:       10
# Bias Voltage:      90
# Detector Voltage:  1900
# Eff. Workfunction: 4.395
# Source:            Focus
# Comment:           
#
# Cycle: 0
# Number of Scans: 15
#
# Cycle: 0, Curve: 0
# Acquisition Date: 11/11/19 16:22:35 UTC
#
# ColumnLabels: energy counts/s
#
114  336.25986
113.9  330.56992
113.8  318.50949
113.7  317.60296
113.6  322.74988
113.5  324.62916
113.4  317.09652
113.3  296.0193
113.2  293.21248
113.1  274.57682
113  289.75164
112.9  285.24937
112.8  292.51348
112.7  283.94906
112.6  278.44577
112.5  305.66101
112.4  266.43662
112.3  256.60284
112.2  262.33124
112.1  262.53264
112  256.81219
111.9  242.45794
111.8  267.80844
111.7  268.47865
111.6  245.65746
111.5  242.60308
111.4  263.08122
111.3  241.63169
111.2  249.73207
111.1  246.63379
111  237.48537
110.9  222.12949
110.8  236.34086
110.7  221.90238
110.6  238.71783
110.5  246.11554
110.4  213.58203
110.3  234.5421
110.2  215.94805
110.1  221.33542
110  176.62881
109.9  204.41548
109.8  217.70254
109.7  202.87592
109.6  198.99775
109.5  206.37109
109.4  215.72698
109.3  221.79946
109.2  206.50379
109.1  206.73624
109  210.13708
108.9  204.53972
108.8  222.59204
108.7  212.91111
108.6  203.39735
108.5  206.64828
108.4  204.69481
108.3  197.89505
108.2  201.97963
108.1  202.88307
108  196.33008
107.9  179.56929
107.8  200.96431
107.7  201.45105
107.6  175.14449
107.5  170.36779
107.4  164.61612
107.3  173.68326
107.2  200.234
107.1  218.69357
107  180.56673
106.9  192.73104
106.8  184.04189
106.7  178.59301
106.6  188.967
106.5  195.68408
106.4  194.28405
106.3  189.78153
106.2  175.66401
106.1  198.56783
106  190.91298
105.9  185.41602
105.8  173.81165
105.7  172.75147
105.6  190.86304
105.5  185.73111
105.4  175.92013
105.3  170.14397
105.2  197.26548
105.1  201.48954
105  193.1311
104.9  188.96121
104.8  200.77642
104.7  196.51034
104.6  188.80982
104.5  189.837
104.4  203.37165
104.3  219.98832
104.2  227.30212
104.1  233.1439
104  263.75799
103.9  251.42657
103.8  266.75758
103.7  275.90738
103.6  266.35396
103.5  287.23487
103.4  303.36593
103.3  324.47134
103.2  309.0603
103.1  336.0411
103  365.3725
102.9  347.26189
102.8  382.29918
102.7  403.92643
102.6  381.54515
102.5  387.81809
102.4  392.96771
102.3  422.34295
102.2  434.42837
102.1  467.09157
102  461.90206
101.9  472.81402
101.8  452.9003
101.7  506.89516
101.6  487.67636
101.5  494.43663
101.4  516.56517
101.3  553.62456
101.2  548.23661
101.1  570.64324
101  636.25886
100.9  644.99578
100.8  624.55947
100.7  695.16679
100.6  755.94054
100.5  848.79281
100.4  955.52169
100.3  1110.6434
100.2  1290.0199
100.1  1461.4774
100  1736.6081
99.9  1873.264
99.8  2022.3606
99.7  2067.1108
99.6  2117.575
99.5  2252.2423
99.4  2418.3261
99.3  2356.8909
99.2  2258.2523
99.1  1951.9901
99  1597.5161
98.9  1097.8975
98.8  714.83279
98.7  426.96419
98.6  274.27005
98.5  170.26286
98.4  115.05561
98.3  90.095455
98.2  83.046626
98.1  66.726495
98  70.902775
97.9  57.061797
97.8  49.044712
97.7  50.602905
97.6  55.158634
97.5  54.761435
97.4  51.632966
97.3  56.10433
97.2  60.982983
97.1  52.156741
97  44.694017