# Region:            Si2p
# Acquisition Date:  11/07/19 20:48:09 UTC
# Analysis Method:   XPS
# Analyzer:          Phoibos
# Analyzer Lens:     MediumArea:1.5kV
# Analyzer Slit:     4:3x20\B:open
# Scan Mode:         FixedAnalyzerTransmission
# Curves/Scan:       1
# Values/Curve:      171
# Dwell Time:        0.1
# Excitation Energy: 1486.71
# Binding Energy:    114
# Pass Energy:       10
# Bias Voltage:      90
# Detector Voltage:  1900
# Eff. Workfunction: 4.395
# Source:            Focus
# Comment:           
#
# Cycle: 0
# Number of Scans: 15
#
# Cycle: 0, Curve: 0
# Acquisition Date: 11/07/19 20:48:09 UTC
#
# ColumnLabels: energy counts/s
#
114  96.8499
113.9  89.922503
113.8  87.89091
113.7  84.347686
113.6  92.284066
113.5  93.606463
113.4  79.690717
113.3  90.136139
113.2  87.177035
113.1  92.643989
113  83.603464
112.9  78.825833
112.8  84.04855
112.7  75.89773
112.6  78.788601
112.5  89.552091
112.4  81.56624
112.3  92.82575
112.2  90.037888
112.1  81.932121
112  78.018901
111.9  87.626877
111.8  77.35687
111.7  82.82368
111.6  90.452229
111.5  87.999202
111.4  80.668841
111.3  83.952739
111.2  83.821209
111.1  83.576817
111  79.444556
110.9  77.329051
110.8  79.026978
110.7  85.354903
110.6  68.871852
110.5  76.785115
110.4  79.438553
110.3  73.474388
110.2  70.009134
110.1  79.635949
110  72.327283
109.9  77.783039
109.8  85.545972
109.7  80.291139
109.6  74.472647
109.5  80.372905
109.4  69.336934
109.3  67.310464
109.2  67.462018
109.1  69.995724
109  77.470679
108.9  76.390932
108.8  72.339634
108.7  75.980896
108.6  74.386766
108.5  68.433568
108.4  68.553652
108.3  65.786025
108.2  76.650346
108.1  81.746763
108  71.709699
107.9  87.816687
107.8  95.088111
107.7  93.951476
107.6  92.692971
107.5  106.00614
107.4  115.04041
107.3  150.22371
107.2  159.84741
107.1  176.94922
107  204.48628
106.9  218.34329
106.8  284.05261
106.7  339.3271
106.6  398.73081
106.5  444.0676
106.4  533.59581
106.3  613.18021
106.2  707.11306
106.1  832.89651
106  913.05506
105.9  1074.5241
105.8  1169.6437
105.7  1263.3754
105.6  1374.9904
105.5  1499.7738
105.4  1548.9209
105.3  1596.4304
105.2  1693.0392
105.1  1749.5933
105  1709.4257
104.9  1708.0205
104.8  1635.5784
104.7  1583.2132
104.6  1497.4379
104.5  1388.1196
104.4  1338.8235
104.3  1194.9678
104.2  1110.609
104.1  1000.43
104  871.66773
103.9  792.4181
103.8  705.93691
103.7  596.6878
103.6  492.06834
103.5  432.66871
103.4  373.03444
103.3  318.39483
103.2  301.04299
103.1  268.4941
103  222.15357
102.9  188.8976
102.8  159.33921
102.7  157.01629
102.6  144.01673
102.5  130.68084
102.4  94.753391
102.3  112.99294
102.2  101.75296
102.1  105.09743
102  91.749917
101.9  91.51337
101.8  88.862971
101.7  78.168909
101.6  78.910963
101.5  77.991233
101.4  69.891561
101.3  75.328212
101.2  65.854645
101.1  63.075702
101  62.047117
100.9  66.542294
100.8  54.029701
100.7  69.577562
100.6  72.107884
100.5  67.778766
100.4  74.015947
100.3  79.331688
100.2  75.497677
100.1  84.759173
100  75.244034
99.9  86.949814
99.8  91.426135
99.7  89.693667
99.6  86.601688
99.5  83.210265
99.4  68.05241
99.3  65.964057
99.2  54.987739
99.1  55.066079
99  53.730172
98.9  55.66312
98.8  53.763771
98.7  53.084818
98.6  53.944527
98.5  61.792501
98.4  57.822406
98.3  51.983185
98.2  58.313098
98.1  53.723968
98  59.159677
97.9  57.151262
97.8  59.441637
97.7  55.977997
97.6  62.067477
97.5  62.673093
97.4  60.927211
97.3  50.481419
97.2  50.24283
97.1  52.615123
97  54.193447