# Region:            O1s (6)
# Acquisition Date:  11/08/19 01:02:13 UTC
# Analysis Method:   XPS
# Analyzer:          Phoibos
# Analyzer Lens:     MediumArea:1.5kV
# Analyzer Slit:     4:3x20\B:open
# Scan Mode:         FixedAnalyzerTransmission
# Curves/Scan:       1
# Values/Curve:      211
# Dwell Time:        0.1
# Excitation Energy: 1486.71
# Binding Energy:    541
# Pass Energy:       10
# Bias Voltage:      90
# Detector Voltage:  1900
# Eff. Workfunction: 4.395
# Source:            Focus
# Comment:           
#
# Cycle: 0
# Number of Scans: 8
#
# Cycle: 0, Curve: 0
# Acquisition Date: 11/08/19 01:02:13 UTC
#
# ColumnLabels: energy counts/s
#
541  578.76241
540.9  561.83843
540.8  597.01269
540.7  572.2134
540.6  586.04007
540.5  621.23048
540.4  592.07931
540.3  563.6229
540.2  542.12726
540.1  563.80052
540  586.45575
539.9  554.96945
539.8  533.76302
539.7  537.45524
539.6  539.35706
539.5  527.23083
539.4  519.08799
539.3  559.56081
539.2  536.0392
539.1  578.8923
539  545.32648
538.9  565.9153
538.8  575.27285
538.7  552.98498
538.6  539.29271
538.5  542.10279
538.4  510.80338
538.3  568.1185
538.2  576.61727
538.1  534.17438
538  525.79502
537.9  547.33347
537.8  591.25421
537.7  555.55778
537.6  547.14476
537.5  501.05185
537.4  550.39573
537.3  594.87737
537.2  608.49841
537.1  614.45682
537  616.47442
536.9  637.11053
536.8  657.11871
536.7  669.67721
536.6  738.48115
536.5  809.43112
536.4  842.88532
536.3  1024.6814
536.2  1106.4494
536.1  1193.7227
536  1416.6447
535.9  1606.9205
535.8  1848.3548
535.7  2248.55
535.6  2599.3867
535.5  3030.8546
535.4  3585.2448
535.3  4330.3124
535.2  4985.7641
535.1  5853.7306
535  6481.1345
534.9  7397.6662
534.8  8237.8534
534.7  9113.0659
534.6  9733.9109
534.5  10235.543
534.4  10864.543
534.3  11208.262
534.2  11342.207
534.1  11335.492
534  10878.596
533.9  10467.067
533.8  9843.4417
533.7  9006.8153
533.6  8176.2412
533.5  7172.863
533.4  6402.2376
533.3  5492.6531
533.2  4712.7135
533.1  4057.2131
533  3274.3589
532.9  2798.1721
532.8  2289.2907
532.7  1868.312
532.6  1565.8134
532.5  1363.8037
532.4  1155.0081
532.3  1064.2935
532.2  939.67262
532.1  861.0193
532  779.28792
531.9  722.46218
531.8  710.65922
531.7  705.63462
531.6  626.38338
531.5  619.71065
531.4  556.36594
531.3  571.6245
531.2  601.69118
531.1  564.1806
531  542.89472
530.9  543.30504
530.8  540.01674
530.7  568.52189
530.6  533.95742
530.5  537.29193
530.4  488.02629
530.3  475.14139
530.2  500.41914
530.1  489.93497
530  517.39448
529.9  502.77046
529.8  477.85423
529.7  468.00231
529.6  476.8506
529.5  497.90007
529.4  464.50563
529.3  459.57836
529.2  459.83546
529.1  435.52492
529  441.50675
528.9  484.34112
528.8  439.69769
528.7  490.33169
528.6  468.0355
528.5  443.03057
528.4  444.84495
528.3  464.77944
528.2  477.14161
528.1  428.4242
528  457.35234
527.9  478.05422
527.8  457.31021
527.7  446.00783
527.6  477.27425
527.5  495.37289
527.4  462.67341
527.3  409.39349
527.2  404.12602
527.1  438.59064
527  431.17002
526.9  465.00443
526.8  465.05233
526.7  444.70008
526.6  445.20798
526.5  461.67105
526.4  462.03147
526.3  449.62829
526.2  443.83647
526.1  424.56272
526  442.3809
525.9  454.63786
525.8  460.11255
525.7  459.24029
525.6  453.34124
525.5  428.90434
525.4  441.54629
525.3  438.33044
525.2  469.8834
525.1  490.88333
525  451.66482
524.9  446.66678
524.8  418.36599
524.7  468.49606
524.6  411.79811
524.5  433.50899
524.4  480.28328
524.3  496.77536
524.2  421.28173
524.1  447.38468
524  458.59405
523.9  476.68798
523.8  424.35895
523.7  437.38518
523.6  439.93721
523.5  413.07418
523.4  438.63484
523.3  416.90268
523.2  441.92196
523.1  450.85082
523  443.17019
522.9  443.49983
522.8  427.33422
522.7  459.94911
522.6  440.1201
522.5  428.84193
522.4  379.56474
522.3  404.53069
522.2  439.542
522.1  427.82597
522  431.71238
521.9  426.71242
521.8  458.4291
521.7  439.26682
521.6  418.84283
521.5  402.08313
521.4  434.67739
521.3  452.21727
521.2  431.84303
521.1  438.98568
521  438.27765
520.9  424.79051
520.8  409.30174
520.7  435.88887
520.6  421.70062
520.5  438.94775
520.4  490.4703
520.3  421.48351
520.2  423.89053
520.1  403.88442
520  402.62363