# Region:            Si2p (25)
# Acquisition Date:  11/08/19 19:50:31 UTC
# Analysis Method:   XPS
# Analyzer:          Phoibos
# Analyzer Lens:     MediumArea:1.5kV
# Analyzer Slit:     4:3x20\B:open
# Scan Mode:         FixedAnalyzerTransmission
# Curves/Scan:       1
# Values/Curve:      171
# Dwell Time:        0.1
# Excitation Energy: 1486.71
# Binding Energy:    114
# Pass Energy:       10
# Bias Voltage:      90
# Detector Voltage:  1900
# Eff. Workfunction: 4.395
# Source:            Focus
# Comment:           35 grados
#
# Cycle: 0
# Number of Scans: 15
#
# Cycle: 0, Curve: 0
# Acquisition Date: 11/08/19 19:50:31 UTC
#
# ColumnLabels: energy counts/s
#
114  79.456456
113.9  76.84733
113.8  78.856127
113.7  78.93736
113.6  82.664343
113.5  70.119972
113.4  66.324182
113.3  65.864096
113.2  59.774783
113.1  62.035413
113  71.726094
112.9  60.939345
112.8  59.248514
112.7  62.213852
112.6  66.533933
112.5  69.032975
112.4  81.178474
112.3  72.492721
112.2  63.703697
112.1  69.176643
112  64.408587
111.9  67.689763
111.8  66.089034
111.7  63.968892
111.6  65.88532
111.5  61.218873
111.4  59.216379
111.3  64.959322
111.2  59.308629
111.1  50.109356
111  66.423555
110.9  73.72052
110.8  60.156092
110.7  51.628165
110.6  50.825354
110.5  55.923839
110.4  58.764039
110.3  55.021686
110.2  53.747897
110.1  54.927261
110  43.554984
109.9  52.972998
109.8  55.170316
109.7  51.06735
109.6  44.315859
109.5  48.530819
109.4  60.017274
109.3  59.603179
109.2  53.104133
109.1  50.221552
109  51.625919
108.9  52.908636
108.8  50.69764
108.7  50.604565
108.6  54.566855
108.5  49.563393
108.4  51.667131
108.3  48.905604
108.2  46.160264
108.1  42.159707
108  41.526795
107.9  41.542854
107.8  50.928
107.7  60.550441
107.6  53.139861
107.5  55.609387
107.4  64.575595
107.3  70.536415
107.2  72.509382
107.1  72.329929
107  83.350688
106.9  92.805365
106.8  125.81147
106.7  140.03469
106.6  151.11642
106.5  184.54942
106.4  217.38214
106.3  300.05013
106.2  328.03815
106.1  374.18289
106  464.41269
105.9  510.11572
105.8  605.49268
105.7  732.36365
105.6  774.47951
105.5  832.9502
105.4  924.81518
105.3  1003.7205
105.2  1125.443
105.1  1131.0743
105  1141.6151
104.9  1182.8731
104.8  1187.7114
104.7  1171.7929
104.6  1136.9018
104.5  1129.8168
104.4  1079.7665
104.3  969.58391
104.2  880.78816
104.1  802.25835
104  732.25547
103.9  607.6624
103.8  563.96506
103.7  466.01545
103.6  436.77983
103.5  380.51508
103.4  324.11151
103.3  283.31602
103.2  232.61016
103.1  200.15926
103  186.68137
102.9  169.79748
102.8  143.3269
102.7  111.43757
102.6  97.73684
102.5  98.61604
102.4  95.834778
102.3  76.9739
102.2  75.149893
102.1  76.623371
102  66.569667
101.9  56.504626
101.8  57.020486
101.7  58.254204
101.6  59.836117
101.5  56.955598
101.4  54.900222
101.3  54.912348
101.2  41.657218
101.1  42.714607
101  37.08489
100.9  51.31359
100.8  47.511737
100.7  42.739382
100.6  49.28908
100.5  55.533886
100.4  66.248183
100.3  64.586296
100.2  61.178908
100.1  78.737556
100  80.507571
99.9  80.656591
99.8  86.571241
99.7  82.564557
99.6  97.516724
99.5  101.19022
99.4  102.01627
99.3  85.654494
99.2  67.099799
99.1  53.410035
99  50.366424
98.9  36.139015
98.8  35.299924
98.7  41.270072
98.6  36.472103
98.5  38.965511
98.4  34.504533
98.3  31.767204
98.2  30.564071
98.1  40.664231
98  42.208728
97.9  35.402286
97.8  36.028375
97.7  36.4745
97.6  42.339104
97.5  41.470577
97.4  44.08691
97.3  38.490401
97.2  34.212027
97.1  31.606716
97  31.979216