# Region:            Si2p (18)
# Acquisition Date:  11/08/19 17:06:03 UTC
# Analysis Method:   XPS
# Analyzer:          Phoibos
# Analyzer Lens:     MediumArea:1.5kV
# Analyzer Slit:     4:3x20\B:open
# Scan Mode:         FixedAnalyzerTransmission
# Curves/Scan:       1
# Values/Curve:      171
# Dwell Time:        0.1
# Excitation Energy: 1486.71
# Binding Energy:    114
# Pass Energy:       10
# Bias Voltage:      90
# Detector Voltage:  1900
# Eff. Workfunction: 4.395
# Source:            Focus
# Comment:           45 grados
#
# Cycle: 0
# Number of Scans: 15
#
# Cycle: 0, Curve: 0
# Acquisition Date: 11/08/19 17:06:03 UTC
#
# ColumnLabels: energy counts/s
#
114  75.411742
113.9  75.83539
113.8  69.745472
113.7  64.577369
113.6  53.668224
113.5  60.575111
113.4  56.384302
113.3  58.849697
113.2  58.310827
113.1  54.531176
113  65.691453
112.9  64.656234
112.8  58.659657
112.7  69.113667
112.6  61.199712
112.5  53.111544
112.4  57.366171
112.3  63.316791
112.2  62.525274
112.1  48.368507
112  49.289226
111.9  55.599767
111.8  59.571694
111.7  55.70142
111.6  58.118741
111.5  51.906271
111.4  50.951463
111.3  64.643915
111.2  61.972677
111.1  52.156165
111  46.346356
110.9  46.830882
110.8  45.844365
110.7  48.482424
110.6  50.429071
110.5  53.223708
110.4  57.544479
110.3  46.558544
110.2  44.926942
110.1  49.501939
110  64.065839
109.9  51.90987
109.8  40.825801
109.7  44.242065
109.6  52.765011
109.5  54.159412
109.4  52.131029
109.3  50.099419
109.2  44.114974
109.1  43.505312
109  36.873046
108.9  45.324661
108.8  54.664839
108.7  45.529278
108.6  51.095808
108.5  40.414382
108.4  38.824438
108.3  40.409068
108.2  52.499174
108.1  43.151627
108  50.622836
107.9  48.978278
107.8  45.32138
107.7  50.69824
107.6  49.045803
107.5  48.455596
107.4  57.008416
107.3  72.167079
107.2  80.573496
107.1  82.653577
107  93.389942
106.9  98.369637
106.8  119.28246
106.7  145.85823
106.6  163.27679
106.5  206.82402
106.4  234.47055
106.3  283.05674
106.2  340.33373
106.1  397.40037
106  472.29857
105.9  550.23966
105.8  598.95732
105.7  670.78251
105.6  743.816
105.5  861.62377
105.4  913.9456
105.3  965.42522
105.2  1015.3453
105.1  1032.8196
105  1073.3406
104.9  1098.1686
104.8  1085.1408
104.7  1019.1852
104.6  1041.6853
104.5  1031.314
104.4  951.57753
104.3  862.59569
104.2  822.55412
104.1  737.49716
104  607.16945
103.9  569.94523
103.8  506.76833
103.7  430.83124
103.6  377.1246
103.5  332.37869
103.4  276.64387
103.3  261.85622
103.2  207.59761
103.1  184.7976
103  150.82696
102.9  146.49989
102.8  130.2596
102.7  117.11109
102.6  102.46142
102.5  86.361121
102.4  71.790678
102.3  68.697295
102.2  70.913863
102.1  60.848859
102  52.048361
101.9  61.491961
101.8  55.014011
101.7  57.614913
101.6  51.237845
101.5  55.916611
101.4  54.013595
101.3  51.962443
101.2  48.165514
101.1  43.696427
101  45.012983
100.9  45.702205
100.8  48.501263
100.7  41.68672
100.6  52.967093
100.5  51.577029
100.4  48.814616
100.3  44.260544
100.2  57.349422
100.1  51.369419
100  51.289327
99.9  55.341777
99.8  56.367449
99.7  49.728267
99.6  47.148647
99.5  57.585341
99.4  62.591891
99.3  54.160569
99.2  48.308538
99.1  37.17664
99  35.924774
98.9  39.70567
98.8  40.360546
98.7  40.791513
98.6  32.455913
98.5  42.786824
98.4  36.057229
98.3  35.714419
98.2  38.010136
98.1  32.412744
98  43.839981
97.9  47.531836
97.8  31.671199
97.7  42.418495
97.6  34.742567
97.5  37.60802
97.4  37.594648
97.3  35.842111
97.2  36.110432
97.1  31.926954
97  30.575678