# Region:            Si2p (15)
# Acquisition Date:  11/08/19 16:23:49 UTC
# Analysis Method:   XPS
# Analyzer:          Phoibos
# Analyzer Lens:     MediumArea:1.5kV
# Analyzer Slit:     4:3x20\B:open
# Scan Mode:         FixedAnalyzerTransmission
# Curves/Scan:       1
# Values/Curve:      171
# Dwell Time:        0.1
# Excitation Energy: 1486.71
# Binding Energy:    114
# Pass Energy:       10
# Bias Voltage:      90
# Detector Voltage:  1900
# Eff. Workfunction: 4.395
# Source:            Focus
# Comment:           medicion angular 15 grados
#
# Cycle: 0
# Number of Scans: 15
#
# Cycle: 0, Curve: 0
# Acquisition Date: 11/08/19 16:23:49 UTC
#
# ColumnLabels: energy counts/s
#
114  89.873533
113.9  80.900851
113.8  87.241827
113.7  83.730267
113.6  79.05722
113.5  76.291845
113.4  82.890528
113.3  89.42742
113.2  83.012615
113.1  90.684773
113  80.931553
112.9  68.417946
112.8  75.152373
112.7  78.274895
112.6  80.188363
112.5  81.909182
112.4  72.295732
112.3  86.30976
112.2  74.122897
112.1  80.69006
112  77.815273
111.9  85.459586
111.8  85.825431
111.7  66.099958
111.6  80.799215
111.5  74.990524
111.4  66.03832
111.3  66.52379
111.2  66.548163
111.1  69.544967
111  78.395898
110.9  71.387169
110.8  67.310575
110.7  64.01123
110.6  67.304211
110.5  65.009803
110.4  68.232626
110.3  74.648378
110.2  63.44034
110.1  69.434524
110  68.463366
109.9  65.475225
109.8  60.329324
109.7  76.823445
109.6  70.596679
109.5  65.272443
109.4  58.994072
109.3  61.449466
109.2  55.902662
109.1  72.456761
109  64.1332
108.9  62.089837
108.8  60.155752
108.7  54.548113
108.6  60.306292
108.5  58.733565
108.4  56.612259
108.3  56.864933
108.2  54.392031
108.1  57.050233
108  65.404445
107.9  62.592216
107.8  55.28791
107.7  63.910816
107.6  71.616327
107.5  70.209511
107.4  87.159393
107.3  83.188265
107.2  88.211998
107.1  102.25167
107  124.34815
106.9  144.74252
106.8  174.34374
106.7  188.75154
106.6  215.10829
106.5  254.20197
106.4  324.36636
106.3  393.13578
106.2  453.32676
106.1  534.0444
106  585.53854
105.9  748.05185
105.8  854.23378
105.7  932.58511
105.6  1021.9801
105.5  1177.7883
105.4  1251.8237
105.3  1319.6763
105.2  1414.6761
105.1  1489.3289
105  1492.5677
104.9  1520.0908
104.8  1563.8022
104.7  1544.3387
104.6  1447.6699
104.5  1352.7178
104.4  1331.137
104.3  1258.5397
104.2  1180.4178
104.1  1058.7285
104  925.71126
103.9  837.34785
103.8  738.77507
103.7  676.26885
103.6  555.78653
103.5  449.8471
103.4  425.46698
103.3  345.96946
103.2  286.19118
103.1  288.77017
103  247.0816
102.9  195.37945
102.8  161.3884
102.7  167.32852
102.6  137.01806
102.5  136.3291
102.4  98.644559
102.3  93.379869
102.2  87.963282
102.1  86.823689
102  91.622094
101.9  88.59936
101.8  65.794072
101.7  72.81549
101.6  75.548988
101.5  75.052751
101.4  70.635697
101.3  66.913694
101.2  71.903313
101.1  65.414685
101  63.741897
100.9  69.826762
100.8  64.023837
100.7  69.935275
100.6  62.400624
100.5  64.841509
100.4  84.023224
100.3  81.403597
100.2  78.044207
100.1  110.08978
100  103.41138
99.9  90.369244
99.8  93.593729
99.7  102.68384
99.6  133.36814
99.5  131.70513
99.4  119.47788
99.3  96.809608
99.2  82.579278
99.1  63.176338
99  57.494281
98.9  46.461535
98.8  46.327022
98.7  56.377252
98.6  62.32954
98.5  60.334796
98.4  49.684627
98.3  45.607223
98.2  42.811059
98.1  42.093486
98  53.301626
97.9  46.838327
97.8  46.661277
97.7  47.278502
97.6  43.947845
97.5  46.323346
97.4  56.679807
97.3  44.806929
97.2  44.57869
97.1  49.449372
97  49.639592