# Region:            Si2p (17)
# Acquisition Date:  11/08/19 16:51:11 UTC
# Analysis Method:   XPS
# Analyzer:          Phoibos
# Analyzer Lens:     MediumArea:1.5kV
# Analyzer Slit:     4:3x20\B:open
# Scan Mode:         FixedAnalyzerTransmission
# Curves/Scan:       1
# Values/Curve:      171
# Dwell Time:        0.1
# Excitation Energy: 1486.71
# Binding Energy:    114
# Pass Energy:       10
# Bias Voltage:      90
# Detector Voltage:  1900
# Eff. Workfunction: 4.395
# Source:            Focus
# Comment:           35 grados
#
# Cycle: 0
# Number of Scans: 15
#
# Cycle: 0, Curve: 0
# Acquisition Date: 11/08/19 16:51:11 UTC
#
# ColumnLabels: energy counts/s
#
114  78.569477
113.9  79.635256
113.8  71.743072
113.7  71.531897
113.6  62.844008
113.5  72.089738
113.4  75.988268
113.3  68.041627
113.2  62.167212
113.1  69.583373
113  60.432796
112.9  66.634159
112.8  66.747467
112.7  64.196504
112.6  81.144129
112.5  77.024109
112.4  67.460776
112.3  57.583889
112.2  65.468798
112.1  70.78044
112  67.177249
111.9  65.211983
111.8  75.156331
111.7  64.531712
111.6  62.061254
111.5  55.558522
111.4  47.762431
111.3  55.163693
111.2  57.921829
111.1  62.386842
111  55.138745
110.9  62.637057
110.8  55.551806
110.7  54.412887
110.6  54.63574
110.5  51.635101
110.4  50.921066
110.3  57.644025
110.2  54.454645
110.1  50.367128
110  54.6687
109.9  53.248807
109.8  58.49889
109.7  50.014633
109.6  54.043107
109.5  51.836919
109.4  51.833891
109.3  50.435609
109.2  45.509717
109.1  52.22206
109  54.755204
108.9  52.121119
108.8  61.485236
108.7  54.430105
108.6  44.287071
108.5  42.522729
108.4  67.801283
108.3  60.482233
108.2  53.075983
108.1  47.457481
108  47.18533
107.9  56.776073
107.8  63.192712
107.7  70.205754
107.6  71.296807
107.5  75.787297
107.4  65.875385
107.3  75.244153
107.2  88.797958
107.1  82.509991
107  89.629953
106.9  123.83412
106.8  131.44748
106.7  156.26418
106.6  180.84637
106.5  221.50679
106.4  274.76721
106.3  320.44248
106.2  384.43832
106.1  456.15592
106  531.57032
105.9  600.20761
105.8  689.59907
105.7  775.27308
105.6  836.63608
105.5  926.38105
105.4  1030.8287
105.3  1075.8918
105.2  1147.1558
105.1  1210.8082
105  1204.7518
104.9  1235.9988
104.8  1213.3197
104.7  1242.0663
104.6  1198.6228
104.5  1193.9532
104.4  1095.8399
104.3  1014.4992
104.2  956.63044
104.1  879.45853
104  732.03938
103.9  651.8918
103.8  599.53719
103.7  541.70763
103.6  440.73594
103.5  390.28777
103.4  351.85609
103.3  314.37215
103.2  245.10985
103.1  213.15235
103  182.44615
102.9  157.71712
102.8  153.85216
102.7  130.28163
102.6  115.00807
102.5  96.984207
102.4  112.66193
102.3  90.953685
102.2  83.555358
102.1  87.304838
102  67.377632
101.9  69.007406
101.8  60.413309
101.7  64.573636
101.6  60.351007
101.5  54.270742
101.4  60.929921
101.3  62.403977
101.2  49.393591
101.1  51.314078
101  40.458881
100.9  45.763781
100.8  52.259862
100.7  47.950472
100.6  56.582707
100.5  48.405479
100.4  47.70986
100.3  53.447263
100.2  61.336745
100.1  59.822318
100  61.469629
99.9  68.649935
99.8  70.291699
99.7  78.591173
99.6  71.117055
99.5  75.357616
99.4  68.184479
99.3  75.873246
99.2  71.095303
99.1  48.098984
99  58.638551
98.9  51.681029
98.8  39.508546
98.7  50.114995
98.6  40.221911
98.5  42.867047
98.4  50.433417
98.3  47.368102
98.2  42.556093
98.1  39.880951
98  48.249428
97.9  47.680234
97.8  49.901556
97.7  35.968174
97.6  49.163929
97.5  36.689332
97.4  37.2808
97.3  39.029336
97.2  42.166042
97.1  40.745526
97  37.160329