# Region:            Si2p (16)
# Acquisition Date:  11/08/19 16:37:15 UTC
# Analysis Method:   XPS
# Analyzer:          Phoibos
# Analyzer Lens:     MediumArea:1.5kV
# Analyzer Slit:     4:3x20\B:open
# Scan Mode:         FixedAnalyzerTransmission
# Curves/Scan:       1
# Values/Curve:      171
# Dwell Time:        0.1
# Excitation Energy: 1486.71
# Binding Energy:    114
# Pass Energy:       10
# Bias Voltage:      90
# Detector Voltage:  1900
# Eff. Workfunction: 4.395
# Source:            Focus
# Comment:           25 grados
#
# Cycle: 0
# Number of Scans: 15
#
# Cycle: 0, Curve: 0
# Acquisition Date: 11/08/19 16:37:15 UTC
#
# ColumnLabels: energy counts/s
#
114  71.933107
113.9  84.849313
113.8  73.667626
113.7  83.271767
113.6  82.293833
113.5  82.249363
113.4  77.999429
113.3  79.713861
113.2  92.321057
113.1  93.255852
113  77.894206
112.9  68.187314
112.8  76.787457
112.7  76.604095
112.6  78.192044
112.5  74.712653
112.4  61.544072
112.3  60.317647
112.2  74.85809
112.1  81.394591
112  70.174067
111.9  79.15664
111.8  57.73743
111.7  60.193069
111.6  68.504699
111.5  81.035927
111.4  64.90741
111.3  72.423109
111.2  75.577944
111.1  63.820059
111  62.952812
110.9  69.592621
110.8  72.785175
110.7  72.574996
110.6  75.448834
110.5  70.767994
110.4  73.70971
110.3  64.73088
110.2  51.834939
110.1  58.014568
110  55.010457
109.9  70.490468
109.8  59.551862
109.7  53.610907
109.6  60.49679
109.5  60.625393
109.4  60.570445
109.3  55.923502
109.2  57.293051
109.1  60.802445
109  59.29756
108.9  60.35369
108.8  56.624477
108.7  44.58901
108.6  57.307592
108.5  51.115736
108.4  54.739209
108.3  55.47714
108.2  56.228566
108.1  61.139349
108  57.689065
107.9  60.294615
107.8  69.123507
107.7  64.495328
107.6  60.079864
107.5  59.03549
107.4  74.976224
107.3  82.732485
107.2  76.229281
107.1  103.84062
107  112.44115
106.9  135.00049
106.8  145.28956
106.7  178.63553
106.6  185.44658
106.5  236.29626
106.4  305.78629
106.3  371.87153
106.2  406.0339
106.1  463.812
106  556.41252
105.9  652.89266
105.8  745.87325
105.7  850.14537
105.6  909.69402
105.5  1037.0499
105.4  1122.5141
105.3  1225.3048
105.2  1306.7677
105.1  1348.6915
105  1356.847
104.9  1414.4873
104.8  1408.5167
104.7  1399.5946
104.6  1391.0609
104.5  1339.7471
104.4  1230.3267
104.3  1137.6819
104.2  1040.1709
104.1  968.44019
104  877.13525
103.9  763.90708
103.8  688.49431
103.7  589.15498
103.6  499.22027
103.5  443.1354
103.4  392.70182
103.3  334.08938
103.2  294.10275
103.1  233.33904
103  203.19555
102.9  192.96456
102.8  155.01997
102.7  140.42964
102.6  130.87651
102.5  116.28754
102.4  108.06916
102.3  101.17162
102.2  86.853288
102.1  88.573058
102  81.2863
101.9  67.119339
101.8  73.266513
101.7  73.55275
101.6  63.048048
101.5  53.610567
101.4  63.710718
101.3  57.312462
101.2  61.636414
101.1  58.314707
101  47.706511
100.9  56.143048
100.8  58.929984
100.7  68.88392
100.6  64.186283
100.5  64.864806
100.4  68.533872
100.3  71.102475
100.2  82.691771
100.1  79.551185
100  86.287144
99.9  81.463818
99.8  79.400252
99.7  89.033645
99.6  106.95917
99.5  120.00468
99.4  106.92672
99.3  83.787409
99.2  70.622739
99.1  58.396293
99  55.889166
98.9  62.174377
98.8  47.9661
98.7  49.123034
98.6  46.84963
98.5  42.271277
98.4  44.028072
98.3  51.135176
98.2  50.211387
98.1  39.574823
98  42.933104
97.9  43.03754
97.8  41.184966
97.7  52.85485
97.6  39.710741
97.5  39.790958
97.4  45.441203
97.3  41.970113
97.2  38.413342
97.1  39.437116
97  34.6537