# Region:            C1s (3)
# Acquisition Date:  11/07/19 21:36:45 UTC
# Analysis Method:   XPS
# Analyzer:          Phoibos
# Analyzer Lens:     MediumArea:1.5kV
# Analyzer Slit:     4:3x20\B:open
# Scan Mode:         FixedAnalyzerTransmission
# Curves/Scan:       1
# Values/Curve:      151
# Dwell Time:        0.1
# Excitation Energy: 1486.71
# Binding Energy:    295
# Pass Energy:       10
# Bias Voltage:      90
# Detector Voltage:  1900
# Eff. Workfunction: 4.395
# Source:            Focus
# Comment:           
#
# Cycle: 0
# Number of Scans: 10
#
# Cycle: 0, Curve: 0
# Acquisition Date: 11/07/19 21:36:45 UTC
#
# ColumnLabels: energy counts/s
#
295  367.33169
294.9  402.73411
294.8  377.75983
294.7  364.27026
294.6  353.57706
294.5  400.46851
294.4  410.55203
294.3  386.64564
294.2  382.36258
294.1  383.46672
294  391.69817
293.9  401.59473
293.8  413.87581
293.7  396.61082
293.6  403.42189
293.5  386.3191
293.4  370.69886
293.3  374.71726
293.2  382.67233
293.1  367.34896
293  390.31544
292.9  374.6417
292.8  388.6172
292.7  408.32692
292.6  341.78522
292.5  363.63905
292.4  390.4473
292.3  390.10342
292.2  345.2115
292.1  364.50082
292  402.02931
291.9  405.78308
291.8  389.55388
291.7  415.27848
291.6  392.0927
291.5  393.28717
291.4  400.4131
291.3  371.53267
291.2  381.91247
291.1  357.5987
291  353.19561
290.9  368.28133
290.8  373.1675
290.7  355.41282
290.6  358.90253
290.5  398.03129
290.4  362.58567
290.3  419.07389
290.2  377.11514
290.1  394.37835
290  392.18016
289.9  389.34661
289.8  388.38385
289.7  391.79169
289.6  363.69653
289.5  403.26979
289.4  381.96432
289.3  381.91406
289.2  360.75818
289.1  382.18098
289  388.77937
288.9  386.91162
288.8  358.51782
288.7  368.60255
288.6  356.23847
288.5  322.78482
288.4  352.96121
288.3  389.87338
288.2  354.85553
288.1  357.01379
288  413.42716
287.9  385.12719
287.8  359.89766
287.7  385.42
287.6  423.74474
287.5  407.27087
287.4  371.96823
287.3  397.79584
287.2  383.73261
287.1  396.18907
287  368.06037
286.9  342.6023
286.8  381.49361
286.7  373.36698
286.6  409.70983
286.5  408.15821
286.4  392.65166
286.3  404.50105
286.2  377.32171
286.1  405.48733
286  400.81281
285.9  375.52143
285.8  381.45227
285.7  392.18921
285.6  374.8398
285.5  410.40137
285.4  373.51251
285.3  368.57697
285.2  392.95089
285.1  403.79986
285  416.27642
284.9  379.51033
284.8  397.46484
284.7  411.58461
284.6  401.81876
284.5  371.48318
284.4  427.10502
284.3  417.8731
284.2  379.55
284.1  359.77381
284  391.68324
283.9  363.73588
283.8  392.46306
283.7  356.05564
283.6  367.52966
283.5  392.60968
283.4  380.41337
283.3  368.58142
283.2  366.53039
283.1  371.39151
283  376.21651
282.9  374.05647
282.8  374.40647
282.7  363.44979
282.6  362.03026
282.5  385.11361
282.4  366.4578
282.3  374.93498
282.2  405.97171
282.1  373.52073
282  382.18228
281.9  372.64806
281.8  356.19374
281.7  372.93806
281.6  371.46687
281.5  362.73158
281.4  382.68696
281.3  386.81482
281.2  370.76817
281.1  370.4747
281  380.09836
280.9  370.03584
280.8  391.13815
280.7  365.06669
280.6  364.15814
280.5  367.36623
280.4  360.56924
280.3  368.21959
280.2  376.31417
280.1  379.61896
280  383.80309