# Region:            C1s  (2)
# Acquisition Date:  11/07/19 21:12:22 UTC
# Analysis Method:   XPS
# Analyzer:          Phoibos
# Analyzer Lens:     MediumArea:1.5kV
# Analyzer Slit:     4:3x20\B:open
# Scan Mode:         FixedAnalyzerTransmission
# Curves/Scan:       1
# Values/Curve:      151
# Dwell Time:        0.1
# Excitation Energy: 1486.71
# Binding Energy:    295
# Pass Energy:       10
# Bias Voltage:      90
# Detector Voltage:  1900
# Eff. Workfunction: 4.395
# Source:            Focus
# Comment:           
#
# Cycle: 0
# Number of Scans: 10
#
# Cycle: 0, Curve: 0
# Acquisition Date: 11/07/19 21:12:22 UTC
#
# ColumnLabels: energy counts/s
#
295  354.63619
294.9  338.03287
294.8  380.55519
294.7  373.76622
294.6  362.29102
294.5  367.20843
294.4  379.34835
294.3  383.78192
294.2  355.91123
294.1  353.83981
294  333.1785
293.9  371.24302
293.8  393.43214
293.7  372.48325
293.6  376.37353
293.5  358.57933
293.4  367.75377
293.3  351.66647
293.2  347.33461
293.1  347.74407
293  384.07901
292.9  391.25084
292.8  373.22001
292.7  364.13361
292.6  366.63182
292.5  361.45555
292.4  349.89976
292.3  373.60714
292.2  374.46139
292.1  316.80824
292  374.64008
291.9  389.65534
291.8  368.30403
291.7  342.86177
291.6  348.65785
291.5  360.32907
291.4  398.54383
291.3  418.51175
291.2  383.88688
291.1  363.9163
291  376.52343
290.9  361.68122
290.8  372.21009
290.7  384.86114
290.6  384.9472
290.5  366.7057
290.4  350.93915
290.3  365.61212
290.2  379.59302
290.1  375.09456
290  324.45068
289.9  358.51827
289.8  349.4217
289.7  353.55973
289.6  385.13067
289.5  370.63413
289.4  350.64861
289.3  377.94337
289.2  357.06704
289.1  388.37988
289  404.60901
288.9  404.7458
288.8  352.77166
288.7  365.25904
288.6  385.49047
288.5  369.61703
288.4  356.4085
288.3  385.47835
288.2  377.31455
288.1  362.10708
288  350.1407
287.9  398.4166
287.8  355.59675
287.7  367.68305
287.6  363.90156
287.5  357.14793
287.4  386.46759
287.3  368.50493
287.2  349.29666
287.1  381.2072
287  388.97534
286.9  357.52717
286.8  367.01095
286.7  366.80973
286.6  397.00073
286.5  391.80159
286.4  370.0889
286.3  364.78891
286.2  359.01303
286.1  351.05416
286  386.60475
285.9  375.74038
285.8  353.10269
285.7  381.83214
285.6  407.53804
285.5  388.93278
285.4  406.66104
285.3  393.20553
285.2  366.97973
285.1  410.78795
285  370.65769
284.9  362.0259
284.8  360.81757
284.7  358.54061
284.6  363.32292
284.5  381.2365
284.4  361.6869
284.3  367.12573
284.2  370.0636
284.1  359.90667
284  355.19217
283.9  363.36959
283.8  385.93477
283.7  386.30155
283.6  348.35774
283.5  383.81721
283.4  348.71264
283.3  383.47522
283.2  345.6555
283.1  346.16981
283  375.58475
282.9  371.36708
282.8  347.11909
282.7  377.51358
282.6  389.49814
282.5  366.81365
282.4  360.83908
282.3  387.88527
282.2  376.67978
282.1  356.94264
282  374.92531
281.9  350.50784
281.8  358.67326
281.7  378.24485
281.6  342.67194
281.5  339.318
281.4  381.86647
281.3  368.46131
281.2  391.32374
281.1  396.41314
281  365.5238
280.9  370.59645
280.8  371.80511
280.7  353.5354
280.6  351.13915
280.5  351.31009
280.4  361.24091
280.3  334.76477
280.2  349.63344
280.1  369.95851
280  357.75592