# Region:            C1s
# Acquisition Date:  11/07/19 16:22:14 UTC
# Analysis Method:   XPS
# Analyzer:          Phoibos
# Analyzer Lens:     MediumArea:1.5kV
# Analyzer Slit:     4:3x20\B:open
# Scan Mode:         FixedAnalyzerTransmission
# Curves/Scan:       1
# Values/Curve:      151
# Dwell Time:        0.1
# Excitation Energy: 1486.71
# Binding Energy:    295
# Pass Energy:       10
# Bias Voltage:      90
# Detector Voltage:  1900
# Eff. Workfunction: 4.395
# Source:            Focus
# Comment:           
#
# Cycle: 0
# Number of Scans: 10
#
# Cycle: 0, Curve: 0
# Acquisition Date: 11/07/19 16:22:14 UTC
#
# ColumnLabels: energy counts/s
#
295  341.58618
294.9  323.78145
294.8  356.37889
294.7  346.41369
294.6  363.69079
294.5  359.10572
294.4  356.97351
294.3  349.47267
294.2  360.3566
294.1  378.89278
294  342.33992
293.9  336.64666
293.8  343.0498
293.7  335.96934
293.6  346.89422
293.5  364.43583
293.4  355.48634
293.3  302.07092
293.2  332.84696
293.1  336.14917
293  332.16071
292.9  346.3058
292.8  318.51062
292.7  308.01955
292.6  352.36961
292.5  330.68418
292.4  336.12752
292.3  335.71489
292.2  324.18454
292.1  321.72881
292  323.35152
291.9  319.42184
291.8  302.04794
291.7  341.54671
291.6  321.45407
291.5  309.06165
291.4  316.84037
291.3  300.76268
291.2  304.72164
291.1  317.31815
291  335.34224
290.9  321.20027
290.8  329.13047
290.7  326.19685
290.6  332.94481
290.5  337.80731
290.4  349.1439
290.3  350.55872
290.2  325.40025
290.1  318.08591
290  353.6337
289.9  340.82022
289.8  358.0787
289.7  362.6298
289.6  350.95058
289.5  366.48824
289.4  354.68963
289.3  369.47654
289.2  367.54988
289.1  371.99428
289  387.87872
288.9  373.85237
288.8  355.46254
288.7  347.0387
288.6  341.72785
288.5  355.17866
288.4  390.92895
288.3  353.8969
288.2  345.15036
288.1  348.18638
288  381.0702
287.9  363.85923
287.8  408.81862
287.7  413.78362
287.6  394.75589
287.5  450.77225
287.4  426.88397
287.3  434.20567
287.2  480.42031
287.1  497.21011
287  508.11282
286.9  494.40485
286.8  491.9863
286.7  526.54416
286.6  567.29447
286.5  626.00828
286.4  682.3441
286.3  828.81388
286.2  952.08763
286.1  1039.8307
286  1262.9023
285.9  1442.1104
285.8  1636.5798
285.7  1809.6097
285.6  1928.7588
285.5  2072.1832
285.4  2141.5652
285.3  2129.966
285.2  2044.2083
285.1  1840.6095
285  1691.005
284.9  1373.7081
284.8  1182.506
284.7  986.65611
284.6  800.20945
284.5  693.23578
284.4  600.33761
284.3  525.28319
284.2  409.70221
284.1  394.5065
284  381.30954
283.9  357.17086
283.8  357.98327
283.7  348.84013
283.6  317.95425
283.5  342.31946
283.4  345.08329
283.3  324.76816
283.2  298.89731
283.1  317.00092
283  340.07869
282.9  309.26386
282.8  300.37713
282.7  296.7533
282.6  308.83272
282.5  295.92251
282.4  321.26844
282.3  319.81328
282.2  324.27369
282.1  319.56095
282  320.23381
281.9  306.15928
281.8  308.65937
281.7  311.68878
281.6  293.11524
281.5  278.54643
281.4  290.98257
281.3  285.32066
281.2  302.3776
281.1  328.94684
281  301.71098
280.9  317.20991
280.8  299.42289
280.7  312.66014
280.6  301.65418
280.5  323.30443
280.4  307.62726
280.3  272.66774
280.2  269.70054
280.1  314.19737
280  314.73417