# Region:            Si2p (34)
# Acquisition Date:  11/08/19 22:49:23 UTC
# Analysis Method:   XPS
# Analyzer:          Phoibos
# Analyzer Lens:     MediumArea:1.5kV
# Analyzer Slit:     4:3x20\B:open
# Scan Mode:         FixedAnalyzerTransmission
# Curves/Scan:       1
# Values/Curve:      171
# Dwell Time:        0.1
# Excitation Energy: 1486.71
# Binding Energy:    114
# Pass Energy:       10
# Bias Voltage:      90
# Detector Voltage:  1900
# Eff. Workfunction: 4.395
# Source:            Focus
# Comment:           55 grados
#
# Cycle: 0
# Number of Scans: 15
#
# Cycle: 0, Curve: 0
# Acquisition Date: 11/08/19 22:49:23 UTC
#
# ColumnLabels: energy counts/s
#
114  66.377829
113.9  72.21673
113.8  77.999179
113.7  78.923109
113.6  55.497491
113.5  58.580921
113.4  73.233271
113.3  78.621246
113.2  69.221508
113.1  67.271262
113  71.504008
112.9  67.197777
112.8  61.49931
112.7  60.897646
112.6  61.015582
112.5  59.424455
112.4  59.821991
112.3  63.726731
112.2  64.502923
112.1  55.723094
112  55.498211
111.9  55.542003
111.8  59.257051
111.7  55.623265
111.6  57.284555
111.5  66.207442
111.4  54.650195
111.3  55.516396
111.2  55.043271
111.1  55.725823
111  54.349996
110.9  48.104138
110.8  53.934376
110.7  55.938861
110.6  49.935283
110.5  51.377832
110.4  51.451409
110.3  49.803802
110.2  45.197873
110.1  53.95936
110  59.326701
109.9  52.022892
109.8  54.567523
109.7  40.195279
109.6  38.967016
109.5  40.808504
109.4  51.058006
109.3  55.037455
109.2  55.045329
109.1  49.911368
109  50.553412
108.9  55.463758
108.8  52.969255
108.7  49.127371
108.6  51.056883
108.5  45.007311
108.4  50.65042
108.3  49.096057
108.2  52.65171
108.1  45.389546
108  51.573045
107.9  52.273823
107.8  46.749803
107.7  47.087449
107.6  43.009635
107.5  42.166555
107.4  56.85503
107.3  60.077109
107.2  51.169949
107.1  47.870401
107  46.306517
106.9  53.421306
106.8  44.673423
106.7  55.304619
106.6  59.41634
106.5  67.771095
106.4  71.426355
106.3  78.911036
106.2  94.394495
106.1  117.41698
106  135.74334
105.9  176.95874
105.8  181.4916
105.7  221.16849
105.6  285.29052
105.5  339.733
105.4  366.52888
105.3  425.16889
105.2  513.22031
105.1  588.22064
105  655.52849
104.9  678.89093
104.8  742.5378
104.7  818.96478
104.6  859.24578
104.5  869.36062
104.4  908.35097
104.3  902.10573
104.2  895.75887
104.1  872.79027
104  856.38336
103.9  806.3004
103.8  766.91224
103.7  732.41472
103.6  643.56271
103.5  631.07924
103.4  565.1167
103.3  476.55585
103.2  385.90304
103.1  387.61818
103  331.52933
102.9  296.17267
102.8  253.07196
102.7  211.36829
102.6  201.68235
102.5  184.04875
102.4  153.1658
102.3  146.79058
102.2  124.70995
102.1  99.710526
102  103.79687
101.9  102.41655
101.8  91.517082
101.7  85.101088
101.6  80.378366
101.5  73.088322
101.4  71.633331
101.3  80.382279
101.2  71.463859
101.1  59.388806
101  60.992652
100.9  59.92007
100.8  61.740664
100.7  73.103321
100.6  59.977059
100.5  56.129659
100.4  59.167685
100.3  68.879634
100.2  69.444145
100.1  75.408793
100  71.833207
99.9  76.192041
99.8  77.285914
99.7  81.770306
99.6  72.703577
99.5  70.000757
99.4  85.407517
99.3  80.348315
99.2  65.304533
99.1  62.615251
99  58.401643
98.9  43.156341
98.8  40.157643
98.7  41.995485
98.6  32.916977
98.5  32.067193
98.4  26.293931
98.3  27.837139
98.2  33.209701
98.1  33.827146
98  28.557745
97.9  28.823156
97.8  25.040714
97.7  34.182955
97.6  31.613982
97.5  24.9444
97.4  32.169881
97.3  32.431071
97.2  32.074538
97.1  29.938761
97  26.689607