# Region:            O1s (9)
# Acquisition Date:  11/08/19 02:09:29 UTC
# Analysis Method:   XPS
# Analyzer:          Phoibos
# Analyzer Lens:     MediumArea:1.5kV
# Analyzer Slit:     4:3x20\B:open
# Scan Mode:         FixedAnalyzerTransmission
# Curves/Scan:       1
# Values/Curve:      211
# Dwell Time:        0.1
# Excitation Energy: 1486.71
# Binding Energy:    541
# Pass Energy:       10
# Bias Voltage:      90
# Detector Voltage:  1900
# Eff. Workfunction: 4.395
# Source:            Focus
# Comment:           medicion angular alta resolucion a 25 grados
#
# Cycle: 0
# Number of Scans: 8
#
# Cycle: 0, Curve: 0
# Acquisition Date: 11/08/19 02:09:29 UTC
#
# ColumnLabels: energy counts/s
#
541  471.7238
540.9  498.85497
540.8  448.30775
540.7  435.35482
540.6  440.15699
540.5  440.84063
540.4  464.68038
540.3  456.16939
540.2  424.83518
540.1  457.76482
540  470.64757
539.9  437.66922
539.8  438.73806
539.7  403.99311
539.6  445.91372
539.5  399.70243
539.4  428.37283
539.3  428.78149
539.2  437.16526
539.1  427.9217
539  444.56257
538.9  416.2705
538.8  426.9278
538.7  400.28766
538.6  428.92376
538.5  453.65166
538.4  411.26749
538.3  425.91865
538.2  443.83155
538.1  398.62742
538  413.42484
537.9  423.37774
537.8  414.50369
537.7  415.44969
537.6  416.18639
537.5  452.67257
537.4  429.42435
537.3  428.75003
537.2  471.97101
537.1  487.29348
537  452.60416
536.9  444.95361
536.8  490.98495
536.7  514.7473
536.6  566.9166
536.5  575.8696
536.4  600.07317
536.3  731.68242
536.2  795.051
536.1  937.22487
536  1056.776
535.9  1233.8174
535.8  1480.5562
535.7  1738.8936
535.6  2039.827
535.5  2452.895
535.4  2885.7364
535.3  3377.4969
535.2  3859.3031
535.1  4496.3167
535  5273.0094
534.9  5953.02
534.8  6504.4767
534.7  7223.4133
534.6  7917.1438
534.5  8290.837
534.4  8890.0454
534.3  9230.0118
534.2  9084.7802
534.1  9141.8606
534  9019.9893
533.9  8603.1478
533.8  8192.3926
533.7  7470.4447
533.6  6807.9982
533.5  5962.8506
533.4  5243.297
533.3  4546.7668
533.2  3830.5411
533.1  3191.4236
533  2677.8558
532.9  2186.4942
532.8  1869.0785
532.7  1562.504
532.6  1264.2288
532.5  1033.3269
532.4  936.80267
532.3  801.14911
532.2  758.86779
532.1  698.92703
532  685.11061
531.9  591.43048
531.8  570.32616
531.7  564.69251
531.6  512.64388
531.5  521.76862
531.4  487.11995
531.3  467.60507
531.2  431.32902
531.1  470.2801
531  416.96699
530.9  438.96898
530.8  428.30471
530.7  371.80744
530.6  357.98242
530.5  392.34615
530.4  402.52903
530.3  406.47571
530.2  400.40411
530.1  389.43011
530  356.28402
529.9  385.60196
529.8  336.5424
529.7  358.31853
529.6  372.00241
529.5  372.19879
529.4  366.13729
529.3  366.18691
529.2  370.62914
529.1  354.21282
529  335.34693
528.9  358.99215
528.8  341.12699
528.7  363.61916
528.6  369.11847
528.5  357.1883
528.4  373.28738
528.3  353.89661
528.2  370.51123
528.1  358.01796
528  343.46021
527.9  316.385
527.8  390.80908
527.7  362.14559
527.6  361.56659
527.5  339.8653
527.4  341.1948
527.3  349.96553
527.2  343.81412
527.1  362.72862
527  340.00022
526.9  354.3941
526.8  339.44435
526.7  380.38158
526.6  365.07262
526.5  353.66549
526.4  376.36701
526.3  375.15307
526.2  343.46115
526.1  370.11394
526  331.83431
525.9  342.56045
525.8  369.71707
525.7  337.37402
525.6  343.66404
525.5  385.62541
525.4  343.9614
525.3  348.12532
525.2  325.64
525.1  345.34829
525  350.71611
524.9  319.20649
524.8  367.30201
524.7  380.08323
524.6  340.73235
524.5  331.40949
524.4  341.52532
524.3  366.81319
524.2  396.71951
524.1  343.43506
524  349.21545
523.9  359.8625
523.8  351.08954
523.7  327.57267
523.6  357.65314
523.5  352.67528
523.4  330.89205
523.3  348.33614
523.2  297.62669
523.1  315.77725
523  331.13645
522.9  322.81812
522.8  350.35464
522.7  344.23977
522.6  333.4216
522.5  344.6243
522.4  347.50712
522.3  367.05423
522.2  338.66571
522.1  346.65472
522  315.13412
521.9  336.67705
521.8  376.09126
521.7  353.96662
521.6  338.00825
521.5  366.01157
521.4  375.27835
521.3  354.52517
521.2  335.48114
521.1  323.60983
521  376.63205
520.9  352.07613
520.8  326.81676
520.7  331.06563
520.6  330.82308
520.5  328.61805
520.4  325.07935
520.3  338.03531
520.2  363.51479
520.1  370.78667
520  336.35976