# Region:            O1s (44)
# Acquisition Date:  11/09/19 02:23:57 UTC
# Analysis Method:   XPS
# Analyzer:          Phoibos
# Analyzer Lens:     MediumArea:1.5kV
# Analyzer Slit:     4:3x20\B:open
# Scan Mode:         FixedAnalyzerTransmission
# Curves/Scan:       1
# Values/Curve:      211
# Dwell Time:        0.1
# Excitation Energy: 1486.71
# Binding Energy:    541
# Pass Energy:       10
# Bias Voltage:      90
# Detector Voltage:  1900
# Eff. Workfunction: 4.395
# Source:            Focus
# Comment:           15 grados
#
# Cycle: 0
# Number of Scans: 8
#
# Cycle: 0, Curve: 0
# Acquisition Date: 11/09/19 02:23:57 UTC
#
# ColumnLabels: energy counts/s
#
541  621.6865
540.9  592.77498
540.8  594.30789
540.7  602.27171
540.6  587.86493
540.5  601.57758
540.4  603.3832
540.3  629.37194
540.2  583.27531
540.1  575.3996
540  629.78075
539.9  593.98301
539.8  588.01309
539.7  578.35346
539.6  611.37506
539.5  615.831
539.4  604.92088
539.3  632.55194
539.2  625.56048
539.1  625.76023
539  582.90082
538.9  638.06112
538.8  622.86153
538.7  669.26671
538.6  558.5581
538.5  566.41108
538.4  578.07092
538.3  560.79818
538.2  576.93084
538.1  585.58525
538  606.96323
537.9  598.6612
537.8  542.85172
537.7  607.40903
537.6  632.52243
537.5  578.12416
537.4  579.21309
537.3  585.54927
537.2  618.10171
537.1  614.5163
537  556.58482
536.9  600.48451
536.8  573.08665
536.7  590.58878
536.6  595.78705
536.5  590.14906
536.4  576.8679
536.3  577.68526
536.2  551.90296
536.1  570.70538
536  563.2376
535.9  590.67033
535.8  551.23972
535.7  598.99016
535.6  562.19169
535.5  586.81777
535.4  606.58052
535.3  568.49561
535.2  591.54797
535.1  617.12603
535  651.19512
534.9  744.49429
534.8  736.46129
534.7  756.09298
534.6  791.66304
534.5  866.97066
534.4  971.01896
534.3  995.86631
534.2  1137.9299
534.1  1421.4752
534  1527.3263
533.9  1752.253
533.8  1992.3735
533.7  2342.5363
533.6  2624.133
533.5  2989.8522
533.4  3295.9043
533.3  3741.1055
533.2  3995.2986
533.1  4354.2795
533  4602.546
532.9  4784.1195
532.8  4838.5851
532.7  4884.3658
532.6  4985.0946
532.5  4898.2915
532.4  4902.9224
532.3  4549.9946
532.2  4403.415
532.1  4155.5293
532  3847.2295
531.9  3498.172
531.8  3072.5796
531.7  2800.0115
531.6  2494.4632
531.5  2180.9591
531.4  1891.0839
531.3  1638.8445
531.2  1437.7235
531.1  1227.0527
531  1010.4738
530.9  828.50153
530.8  734.98331
530.7  697.12737
530.6  654.32571
530.5  595.25151
530.4  571.07152
530.3  551.02228
530.2  532.32349
530.1  545.76152
530  527.1992
529.9  486.68724
529.8  510.0391
529.7  473.68482
529.6  435.68413
529.5  485.49157
529.4  493.08743
529.3  497.22588
529.2  492.28292
529.1  492.2635
529  464.6869
528.9  454.99935
528.8  473.39704
528.7  475.83903
528.6  468.09368
528.5  478.88371
528.4  423.78607
528.3  432.26433
528.2  429.42381
528.1  427.87193
528  443.07806
527.9  435.90172
527.8  443.12204
527.7  443.29996
527.6  440.06775
527.5  457.94871
527.4  488.68088
527.3  453.18592
527.2  437.622
527.1  417.64617
527  443.95737
526.9  452.70749
526.8  437.98239
526.7  453.89551
526.6  468.85435
526.5  436.14171
526.4  445.03909
526.3  471.02775
526.2  456.73278
526.1  448.98202
526  456.8479
525.9  452.90327
525.8  452.71778
525.7  421.03151
525.6  423.25982
525.5  437.58971
525.4  445.38912
525.3  436.37735
525.2  453.724
525.1  465.25934
525  411.18548
524.9  428.48752
524.8  473.52032
524.7  432.5907
524.6  436.49867
524.5  434.68332
524.4  448.27701
524.3  461.07016
524.2  454.88254
524.1  427.16324
524  438.35269
523.9  460.0839
523.8  411.21221
523.7  441.63167
523.6  410.67432
523.5  435.79163
523.4  436.60459
523.3  417.65634
523.2  451.05189
523.1  436.05934
523  417.45927
522.9  439.30996
522.8  465.38178
522.7  456.01192
522.6  455.74372
522.5  482.4603
522.4  441.60982
522.3  421.99611
522.2  444.79354
522.1  460.57734
522  442.11382
521.9  473.25155
521.8  427.6922
521.7  429.20073
521.6  416.90679
521.5  425.92492
521.4  437.4785
521.3  416.01235
521.2  450.71631
521.1  434.68032
521  398.79108
520.9  408.26205
520.8  413.72099
520.7  440.92632
520.6  444.5029
520.5  417.32394
520.4  452.97752
520.3  429.45966
520.2  463.08209
520.1  455.89347
520  467.84004