# Region:            O1s (12)
# Acquisition Date:  11/08/19 02:49:13 UTC
# Analysis Method:   XPS
# Analyzer:          Phoibos
# Analyzer Lens:     MediumArea:1.5kV
# Analyzer Slit:     4:3x20\B:open
# Scan Mode:         FixedAnalyzerTransmission
# Curves/Scan:       1
# Values/Curve:      211
# Dwell Time:        0.1
# Excitation Energy: 1486.71
# Binding Energy:    541
# Pass Energy:       10
# Bias Voltage:      90
# Detector Voltage:  1900
# Eff. Workfunction: 4.395
# Source:            Focus
# Comment:           medicion angular alta resolucion a 55 grados
#
# Cycle: 0
# Number of Scans: 8
#
# Cycle: 0, Curve: 0
# Acquisition Date: 11/08/19 02:49:13 UTC
#
# ColumnLabels: energy counts/s
#
541  293.75386
540.9  287.28523
540.8  281.07319
540.7  298.27688
540.6  312.89038
540.5  264.40819
540.4  299.90471
540.3  275.04354
540.2  306.35237
540.1  288.93506
540  288.5854
539.9  263.22053
539.8  246.99249
539.7  258.17589
539.6  282.39456
539.5  286.80922
539.4  278.61946
539.3  291.65346
539.2  282.26209
539.1  247.43466
539  241.10833
538.9  248.2892
538.8  257.32639
538.7  235.2676
538.6  242.86634
538.5  250.4074
538.4  267.95127
538.3  224.5007
538.2  241.2784
538.1  231.78362
538  268.82141
537.9  276.30082
537.8  282.24861
537.7  271.92727
537.6  234.65914
537.5  240.20564
537.4  237.11894
537.3  270.53813
537.2  280.37593
537.1  278.8268
537  303.23145
536.9  306.19872
536.8  306.77397
536.7  336.93561
536.6  382.20432
536.5  411.78237
536.4  423.80312
536.3  525.41798
536.2  571.49828
536.1  650.07945
536  741.41627
535.9  919.86579
535.8  997.03507
535.7  1241.899
535.6  1449.7556
535.5  1709.0321
535.4  1999.6974
535.3  2293.9835
535.2  2763.4942
535.1  3128.2891
535  3561.4426
534.9  4010.5954
534.8  4397.7907
534.7  4877.5313
534.6  5133.0161
534.5  5513.1295
534.4  5791.1812
534.3  5821.7446
534.2  5977.4612
534.1  5876.1877
534  5682.2143
533.9  5326.7472
533.8  4997.7731
533.7  4596.5157
533.6  4120.5469
533.5  3586.7347
533.4  3092.2258
533.3  2761.8191
533.2  2372.4832
533.1  1908.8578
533  1682.1641
532.9  1307.7464
532.8  1052.5772
532.7  892.72192
532.6  741.38807
532.5  662.27388
532.4  602.70214
532.3  533.67746
532.2  445.0449
532.1  402.59288
532  378.91839
531.9  339.2922
531.8  298.60088
531.7  293.76728
531.6  271.13694
531.5  278.95476
531.4  279.83558
531.3  275.91376
531.2  276.35533
531.1  261.35269
531  263.95683
530.9  226.981
530.8  221.05396
530.7  262.90961
530.6  239.59393
530.5  248.14315
530.4  245.15825
530.3  202.10497
530.2  198.33711
530.1  214.14086
530  248.0851
529.9  246.79918
529.8  215.66651
529.7  214.77717
529.6  218.94946
529.5  202.61195
529.4  239.84144
529.3  210.50713
529.2  186.33738
529.1  183.20584
529  220.46128
528.9  196.8269
528.8  192.54588
528.7  214.95691
528.6  190.88625
528.5  211.85935
528.4  212.36927
528.3  215.27507
528.2  202.68714
528.1  197.97696
528  214.28187
527.9  177.23081
527.8  198.21523
527.7  188.97847
527.6  200.22307
527.5  188.94279
527.4  213.91317
527.3  230.50057
527.2  216.86039
527.1  179.47724
527  206.55256
526.9  203.27087
526.8  169.17204
526.7  185.3932
526.6  178.4386
526.5  210.98221
526.4  236.21759
526.3  208.49968
526.2  197.08338
526.1  203.7564
526  189.1562
525.9  204.31531
525.8  181.36172
525.7  202.62986
525.6  193.06158
525.5  202.07604
525.4  209.13268
525.3  184.61675
525.2  193.35722
525.1  195.76064
525  188.56488
524.9  200.24852
524.8  193.3492
524.7  212.80467
524.6  181.94827
524.5  200.94401
524.4  218.43509
524.3  219.56599
524.2  186.66775
524.1  207.04281
524  215.33487
523.9  203.23115
523.8  198.63021
523.7  188.49877
523.6  188.25649
523.5  205.68612
523.4  200.31412
523.3  186.04328
523.2  217.02996
523.1  209.64153
523  185.38375
522.9  206.3126
522.8  211.1669
522.7  200.98139
522.6  176.41033
522.5  196.22884
522.4  186.2285
522.3  183.93504
522.2  192.03633
522.1  195.41927
522  202.89481
521.9  185.37808
521.8  195.62232
521.7  206.70189
521.6  208.36089
521.5  187.6301
521.4  214.80788
521.3  194.29694
521.2  197.74925
521.1  231.80048
521  203.74368
520.9  184.25869
520.8  193.69687
520.7  194.03745
520.6  209.37186
520.5  223.5772
520.4  183.3372
520.3  184.18622
520.2  188.40847
520.1  218.59877
520  222.54745