# Region:            O1s (30)
# Acquisition Date:  11/08/19 21:46:48 UTC
# Analysis Method:   XPS
# Analyzer:          Phoibos
# Analyzer Lens:     MediumArea:1.5kV
# Analyzer Slit:     4:3x20\B:open
# Scan Mode:         FixedAnalyzerTransmission
# Curves/Scan:       1
# Values/Curve:      211
# Dwell Time:        0.1
# Excitation Energy: 1486.71
# Binding Energy:    541
# Pass Energy:       10
# Bias Voltage:      90
# Detector Voltage:  1900
# Eff. Workfunction: 4.395
# Source:            Focus
# Comment:           15 grados
#
# Cycle: 0
# Number of Scans: 8
#
# Cycle: 0, Curve: 0
# Acquisition Date: 11/08/19 21:46:48 UTC
#
# ColumnLabels: energy counts/s
#
541  594.28831
540.9  559.4252
540.8  575.49243
540.7  575.51068
540.6  581.50364
540.5  618.22172
540.4  561.74836
540.3  569.18872
540.2  584.6715
540.1  588.99156
540  588.73411
539.9  551.65491
539.8  554.21579
539.7  579.04827
539.6  557.27115
539.5  549.13229
539.4  567.94491
539.3  552.09545
539.2  512.49398
539.1  522.5983
539  561.19196
538.9  525.76453
538.8  507.13651
538.7  538.67469
538.6  547.25835
538.5  498.08874
538.4  533.07553
538.3  553.74146
538.2  543.53558
538.1  538.49626
538  513.81332
537.9  516.08556
537.8  564.10804
537.7  566.14296
537.6  540.81839
537.5  494.65306
537.4  458.69895
537.3  482.69535
537.2  510.94742
537.1  520.17956
537  552.68689
536.9  589.15183
536.8  562.20437
536.7  544.34538
536.6  583.25322
536.5  553.96813
536.4  574.89605
536.3  574.68541
536.2  594.02926
536.1  630.9868
536  667.16652
535.9  723.97252
535.8  736.86379
535.7  792.74129
535.6  911.37102
535.5  999.20525
535.4  1142.7691
535.3  1345.0699
535.2  1499.8757
535.1  1867.5192
535  2184.8835
534.9  2617.3623
534.8  3082.7333
534.7  3721.1964
534.6  4269.6626
534.5  5027.4287
534.4  5681.7276
534.3  6424.2234
534.2  7319.2147
534.1  8250.8085
534  8760.7456
533.9  9407.5147
533.8  9772.3138
533.7  9954.2676
533.6  9851.8991
533.5  9743.6528
533.4  9358.1952
533.3  8613.8565
533.2  7691.8133
533.1  7004.1578
533  6091.3983
532.9  5263.9747
532.8  4323.1394
532.7  3641.1122
532.6  3113.7561
532.5  2581.9568
532.4  2146.125
532.3  1842.5028
532.2  1465.4615
532.1  1308.6808
532  1145.5177
531.9  959.42153
531.8  877.21659
531.7  831.8879
531.6  739.93599
531.5  681.70432
531.4  706.45558
531.3  659.79099
531.2  636.30826
531.1  573.22288
531  594.04913
530.9  539.07137
530.8  524.83899
530.7  482.86513
530.6  487.43649
530.5  463.56054
530.4  475.33777
530.3  484.79795
530.2  472.87634
530.1  468.4296
530  475.00515
529.9  493.49987
529.8  499.71718
529.7  492.92469
529.6  470.40811
529.5  462.7052
529.4  440.93856
529.3  481.19549
529.2  428.29573
529.1  427.20822
529  405.11653
528.9  429.44755
528.8  404.32525
528.7  449.83718
528.6  442.09578
528.5  461.08028
528.4  463.79435
528.3  443.51893
528.2  417.21213
528.1  427.88306
528  420.29215
527.9  419.99751
527.8  448.34021
527.7  441.17299
527.6  449.25091
527.5  449.36051
527.4  470.45178
527.3  424.49402
527.2  429.7837
527.1  412.79807
527  412.4288
526.9  422.63187
526.8  448.60469
526.7  440.57254
526.6  397.15796
526.5  427.65751
526.4  413.11325
526.3  432.08261
526.2  451.0711
526.1  438.94271
526  468.80585
525.9  428.33598
525.8  423.92334
525.7  423.06204
525.6  406.99686
525.5  401.69771
525.4  436.11644
525.3  416.0883
525.2  436.18617
525.1  463.93466
525  433.56922
524.9  441.1196
524.8  457.61677
524.7  409.02941
524.6  423.69754
524.5  412.92429
524.4  411.23544
524.3  423.02266
524.2  407.30132
524.1  446.26153
524  399.35893
523.9  423.6598
523.8  408.65894
523.7  450.91164
523.6  417.14827
523.5  408.30108
523.4  425.30839
523.3  427.75209
523.2  429.56606
523.1  441.8771
523  397.12279
522.9  409.67773
522.8  425.52068
522.7  415.19382
522.6  432.99129
522.5  462.85672
522.4  441.68984
522.3  411.67743
522.2  427.98373
522.1  438.11314
522  402.9604
521.9  413.911
521.8  405.40969
521.7  447.03888
521.6  439.42892
521.5  434.92886
521.4  428.72609
521.3  418.97487
521.2  411.08407
521.1  408.2347
521  388.65324
520.9  396.32131
520.8  417.43085
520.7  419.42297
520.6  448.80955
520.5  446.00583
520.4  402.28845
520.3  417.72408
520.2  416.18398
520.1  368.49962
520  395.89393