# Region:            O1s (27)
# Acquisition Date:  11/08/19 20:19:16 UTC
# Analysis Method:   XPS
# Analyzer:          Phoibos
# Analyzer Lens:     MediumArea:1.5kV
# Analyzer Slit:     4:3x20\B:open
# Scan Mode:         FixedAnalyzerTransmission
# Curves/Scan:       1
# Values/Curve:      211
# Dwell Time:        0.1
# Excitation Energy: 1486.71
# Binding Energy:    541
# Pass Energy:       10
# Bias Voltage:      90
# Detector Voltage:  1900
# Eff. Workfunction: 4.395
# Source:            Focus
# Comment:           55 grados
#
# Cycle: 0
# Number of Scans: 8
#
# Cycle: 0, Curve: 0
# Acquisition Date: 11/08/19 20:19:16 UTC
#
# ColumnLabels: energy counts/s
#
541  310.91989
540.9  308.94563
540.8  306.33976
540.7  270.6008
540.6  236.35321
540.5  275.35712
540.4  296.61326
540.3  308.43749
540.2  274.16285
540.1  268.39824
540  265.67023
539.9  259.67103
539.8  301.75977
539.7  264.63437
539.6  258.09466
539.5  262.51576
539.4  247.84753
539.3  265.06903
539.2  259.54287
539.1  257.26597
539  254.93038
538.9  252.65869
538.8  253.14073
538.7  227.13448
538.6  242.16967
538.5  267.7104
538.4  259.32335
538.3  246.33013
538.2  272.93636
538.1  274.82719
538  269.86484
537.9  271.09447
537.8  238.82917
537.7  225.96299
537.6  247.06315
537.5  268.37629
537.4  263.21005
537.3  243.93933
537.2  233.51856
537.1  274.69387
537  293.15636
536.9  294.9029
536.8  275.83981
536.7  335.65456
536.6  366.64598
536.5  373.85564
536.4  395.91867
536.3  421.66845
536.2  479.75788
536.1  569.93495
536  629.60203
535.9  757.16079
535.8  834.85221
535.7  1080.4947
535.6  1255.4732
535.5  1425.0332
535.4  1725.8069
535.3  2074.8083
535.2  2461.7126
535.1  2862.0281
535  3204.6122
534.9  3605.6217
534.8  4056.3677
534.7  4621.1359
534.6  4857.1081
534.5  5184.1224
534.4  5489.4125
534.3  5647.1528
534.2  5750.2966
534.1  5548.0921
534  5466.8057
533.9  5264.92
533.8  4867.1162
533.7  4586.1766
533.6  4114.387
533.5  3635.9268
533.4  3085.7965
533.3  2718.6936
533.2  2300.2768
533.1  1902.1758
533  1584.1798
532.9  1289.83
532.8  1082.9661
532.7  905.14569
532.6  761.29508
532.5  635.17306
532.4  529.8534
532.3  457.54235
532.2  435.67684
532.1  406.7011
532  348.59534
531.9  378.19536
531.8  357.72753
531.7  327.23496
531.6  289.1528
531.5  267.44083
531.4  251.58102
531.3  243.34422
531.2  259.32682
531.1  264.357
531  247.9612
530.9  253.9591
530.8  247.25298
530.7  255.08315
530.6  240.0558
530.5  235.97643
530.4  230.30245
530.3  200.51952
530.2  253.88008
530.1  251.6098
530  198.24716
529.9  219.49839
529.8  227.66846
529.7  236.32237
529.6  188.74384
529.5  203.76556
529.4  210.17177
529.3  190.51272
529.2  223.52352
529.1  220.71389
529  221.57446
528.9  214.50547
528.8  257.78874
528.7  232.34343
528.6  234.57258
528.5  218.39535
528.4  217.17659
528.3  227.06977
528.2  204.06317
528.1  211.72215
528  185.29648
527.9  227.18224
527.8  183.92877
527.7  200.65128
527.6  198.01086
527.5  201.88428
527.4  199.67691
527.3  203.01808
527.2  207.84683
527.1  210.28044
527  214.01281
526.9  221.02266
526.8  200.73328
526.7  210.35885
526.6  219.4894
526.5  203.15116
526.4  198.74851
526.3  210.48691
526.2  200.35038
526.1  193.41718
526  188.87554
525.9  203.36992
525.8  200.22016
525.7  202.59346
525.6  212.44775
525.5  211.12664
525.4  197.14476
525.3  198.16607
525.2  201.88506
525.1  202.16804
525  199.05568
524.9  212.52886
524.8  222.17215
524.7  179.50302
524.6  189.25568
524.5  208.17981
524.4  174.28585
524.3  203.47291
524.2  210.14231
524.1  206.61919
524  182.63563
523.9  206.43878
523.8  195.18308
523.7  229.6965
523.6  208.75608
523.5  193.32046
523.4  186.62766
523.3  193.53693
523.2  201.75496
523.1  194.71177
523  187.56752
522.9  192.55363
522.8  213.71636
522.7  207.56395
522.6  199.62426
522.5  171.24332
522.4  195.50817
522.3  204.75942
522.2  194.08226
522.1  229.87028
522  237.67254
521.9  206.92568
521.8  172.59713
521.7  183.56437
521.6  193.30226
521.5  202.94646
521.4  184.47628
521.3  213.76919
521.2  215.25106
521.1  195.33041
521  205.45471
520.9  216.27101
520.8  190.16023
520.7  223.48789
520.6  203.07805
520.5  180.04646
520.4  188.7162
520.3  179.80944
520.2  160.66313
520.1  200.3215
520  194.69786