# Region:            O1s (7)
# Acquisition Date:  11/08/19 01:22:32 UTC
# Analysis Method:   XPS
# Analyzer:          Phoibos
# Analyzer Lens:     MediumArea:1.5kV
# Analyzer Slit:     4:3x20\B:open
# Scan Mode:         FixedAnalyzerTransmission
# Curves/Scan:       1
# Values/Curve:      211
# Dwell Time:        0.1
# Excitation Energy: 1486.71
# Binding Energy:    541
# Pass Energy:       10
# Bias Voltage:      90
# Detector Voltage:  1900
# Eff. Workfunction: 4.395
# Source:            Focus
# Comment:           medicion angular alta resolucion 5 grados
#
# Cycle: 0
# Number of Scans: 8
#
# Cycle: 0, Curve: 0
# Acquisition Date: 11/08/19 01:22:32 UTC
#
# ColumnLabels: energy counts/s
#
541  587.20246
540.9  588.48075
540.8  575.96042
540.7  623.95264
540.6  615.20289
540.5  587.37042
540.4  617.98929
540.3  568.381
540.2  572.24821
540.1  541.55386
540  590.78858
539.9  538.00484
539.8  513.82458
539.7  562.64792
539.6  555.8022
539.5  617.99294
539.4  587.17436
539.3  565.17996
539.2  569.10372
539.1  547.39792
539  546.44547
538.9  581.34657
538.8  544.01521
538.7  540.59642
538.6  566.68717
538.5  543.88429
538.4  494.40782
538.3  498.45047
538.2  529.23858
538.1  493.30791
538  490.09098
537.9  576.44646
537.8  506.06462
537.7  561.98594
537.6  599.82427
537.5  602.72082
537.4  535.64862
537.3  551.62385
537.2  589.18094
537.1  583.7759
537  632.97358
536.9  596.54278
536.8  617.5987
536.7  713.48988
536.6  725.457
536.5  720.43244
536.4  841.05764
536.3  877.66325
536.2  937.46802
536.1  1084.1167
536  1259.7498
535.9  1610.9616
535.8  1873.5317
535.7  2174.5978
535.6  2499.5213
535.5  2979.8142
535.4  3462.2313
535.3  4138.8094
535.2  4716.1463
535.1  5439.6174
535  6276.716
534.9  7233.9788
534.8  8004.6726
534.7  8861.4077
534.6  9434.495
534.5  10290.412
534.4  10753.232
534.3  10992.733
534.2  11165.113
534.1  11150.033
534  10984.808
533.9  10628.004
533.8  9940.6441
533.7  9364.8923
533.6  8459.9709
533.5  7480.145
533.4  6537.0481
533.3  5644.2288
533.2  4802.301
533.1  3963.8491
533  3334.4549
532.9  2736.2027
532.8  2344.0391
532.7  1994.8844
532.6  1615.0446
532.5  1379.5187
532.4  1200.7519
532.3  1033.2932
532.2  978.56441
532.1  886.99058
532  795.16637
531.9  767.70757
531.8  730.95257
531.7  705.66693
531.6  682.12848
531.5  585.19666
531.4  606.49293
531.3  593.16743
531.2  565.81729
531.1  574.83514
531  527.07905
530.9  491.49063
530.8  512.54304
530.7  548.98234
530.6  502.95448
530.5  508.89984
530.4  522.64617
530.3  495.25114
530.2  455.47258
530.1  468.65816
530  489.48635
529.9  480.22896
529.8  447.11019
529.7  489.76732
529.6  465.76902
529.5  471.60805
529.4  469.8025
529.3  479.12086
529.2  469.68346
529.1  455.27884
529  460.0598
528.9  454.40449
528.8  478.97256
528.7  446.22351
528.6  434.15709
528.5  461.56456
528.4  466.59938
528.3  458.64847
528.2  457.17935
528.1  455.44141
528  429.83856
527.9  407.09009
527.8  396.38755
527.7  452.45954
527.6  407.97307
527.5  447.45524
527.4  448.62808
527.3  445.16612
527.2  460.5694
527.1  441.8969
527  437.8784
526.9  411.32095
526.8  432.80335
526.7  459.07043
526.6  406.95574
526.5  440.35536
526.4  454.59938
526.3  443.82376
526.2  444.94935
526.1  400.96635
526  455.1873
525.9  489.72479
525.8  433.63485
525.7  448.66058
525.6  444.06257
525.5  415.08725
525.4  477.47923
525.3  439.55038
525.2  461.03701
525.1  478.44256
525  436.02948
524.9  402.87475
524.8  435.42763
524.7  389.55279
524.6  396.40573
524.5  431.76173
524.4  461.57372
524.3  456.32029
524.2  471.14817
524.1  477.06737
524  467.50458
523.9  424.34963
523.8  450.80886
523.7  414.53609
523.6  433.77393
523.5  454.89671
523.4  474.04463
523.3  457.41642
523.2  421.97469
523.1  396.84746
523  448.06563
522.9  442.32419
522.8  468.14517
522.7  446.78759
522.6  420.81339
522.5  438.68316
522.4  441.08083
522.3  411.75908
522.2  422.05596
522.1  458.63261
522  432.51768
521.9  448.58061
521.8  414.95153
521.7  436.84266
521.6  436.43956
521.5  428.71318
521.4  449.70315
521.3  412.7237
521.2  409.71968
521.1  421.25963
521  437.98874
520.9  442.35259
520.8  444.93674
520.7  415.86085
520.6  417.40197
520.5  412.7902
520.4  465.1147
520.3  408.72716
520.2  464.73895
520.1  452.4291
520  455.21986