# Region:            O1s (62)
# Acquisition Date:  11/11/19 19:45:52 UTC
# Analysis Method:   XPS
# Analyzer:          Phoibos
# Analyzer Lens:     MediumArea:1.5kV
# Analyzer Slit:     4:3x20\B:open
# Scan Mode:         FixedAnalyzerTransmission
# Curves/Scan:       1
# Values/Curve:      211
# Dwell Time:        0.1
# Excitation Energy: 1486.71
# Binding Energy:    541
# Pass Energy:       10
# Bias Voltage:      90
# Detector Voltage:  1900
# Eff. Workfunction: 4.395
# Source:            Focus
# Comment:           55 grados
#
# Cycle: 0
# Number of Scans: 8
#
# Cycle: 0, Curve: 0
# Acquisition Date: 11/11/19 19:45:52 UTC
#
# ColumnLabels: energy counts/s
#
541  231.14946
540.9  230.90045
540.8  256.41001
540.7  265.23715
540.6  259.1108
540.5  249.59915
540.4  274.37337
540.3  245.46197
540.2  253.92873
540.1  251.33558
540  233.94135
539.9  232.51904
539.8  240.84087
539.7  271.15791
539.6  255.03565
539.5  258.77141
539.4  255.09276
539.3  243.31421
539.2  258.03258
539.1  242.30566
539  249.31548
538.9  252.94494
538.8  258.82413
538.7  213.23808
538.6  219.65022
538.5  259.53784
538.4  240.1854
538.3  248.77011
538.2  230.82508
538.1  219.37279
538  231.80705
537.9  240.50839
537.8  230.2974
537.7  230.56814
537.6  275.87437
537.5  247.06683
537.4  264.61081
537.3  224.80998
537.2  229.02162
537.1  254.43964
537  225.04001
536.9  220.94535
536.8  236.42174
536.7  237.1667
536.6  234.6047
536.5  259.22676
536.4  239.17203
536.3  246.76277
536.2  248.14448
536.1  279.19483
536  266.54408
535.9  240.14896
535.8  242.05934
535.7  209.50416
535.6  222.15087
535.5  230.96948
535.4  248.02495
535.3  256.10415
535.2  267.14755
535.1  259.28559
535  247.12837
534.9  232.49074
534.8  223.09834
534.7  270.18703
534.6  264.45356
534.5  258.26969
534.4  262.83207
534.3  257.49682
534.2  268.68772
534.1  263.33553
534  293.9053
533.9  323.73304
533.8  304.25702
533.7  278.72476
533.6  282.34003
533.5  301.57502
533.4  283.42677
533.3  335.60024
533.2  323.80554
533.1  344.96982
533  345.13605
532.9  361.0097
532.8  372.27864
532.7  403.57912
532.6  374.54725
532.5  422.38673
532.4  471.07884
532.3  505.69983
532.2  498.1644
532.1  576.36617
532  589.07732
531.9  634.68191
531.8  624.36496
531.7  658.40839
531.6  677.51153
531.5  749.24803
531.4  675.79509
531.3  659.59371
531.2  655.27567
531.1  557.03415
531  548.06052
530.9  434.89674
530.8  398.25195
530.7  333.65638
530.6  289.14278
530.5  285.9776
530.4  278.00798
530.3  244.97933
530.2  228.92086
530.1  252.1305
530  231.78919
529.9  231.62601
529.8  265.21834
529.7  222.95873
529.6  230.71546
529.5  247.87318
529.4  232.37112
529.3  208.73693
529.2  199.1057
529.1  221.68164
529  210.16975
528.9  238.22197
528.8  247.1817
528.7  236.9884
528.6  220.78701
528.5  200.41737
528.4  209.05539
528.3  241.63005
528.2  215.21691
528.1  198.6067
528  206.98342
527.9  224.55848
527.8  229.17407
527.7  218.64293
527.6  235.35864
527.5  224.20254
527.4  253.32547
527.3  204.50302
527.2  204.28806
527.1  200.83324
527  215.64173
526.9  216.1986
526.8  210.90722
526.7  244.58835
526.6  244.57758
526.5  245.45533
526.4  206.54286
526.3  214.1445
526.2  221.10837
526.1  228.06935
526  216.54952
525.9  216.97447
525.8  237.52244
525.7  215.68471
525.6  208.38354
525.5  233.45308
525.4  257.84034
525.3  202.99623
525.2  214.61103
525.1  221.51316
525  226.89908
524.9  203.41137
524.8  227.75943
524.7  252.03681
524.6  236.78102
524.5  229.55597
524.4  222.48935
524.3  244.09776
524.2  220.86758
524.1  231.13479
524  217.33051
523.9  238.27144
523.8  242.17927
523.7  256.7528
523.6  220.10056
523.5  235.16217
523.4  201.88764
523.3  222.06013
523.2  225.9278
523.1  241.88196
523  243.53634
522.9  240.7613
522.8  248.01034
522.7  243.59465
522.6  210.41113
522.5  223.83913
522.4  237.32697
522.3  229.6068
522.2  242.94032
522.1  214.85273
522  226.5796
521.9  226.71646
521.8  247.61013
521.7  238.0969
521.6  227.14965
521.5  227.48628
521.4  231.47772
521.3  258.39921
521.2  233.33689
521.1  220.16003
521  220.37782
520.9  202.47108
520.8  236.35652
520.7  217.21626
520.6  198.48387
520.5  205.70427
520.4  227.3716
520.3  242.26192
520.2  239.65038
520.1  248.91293
520  228.71245